# Capacitor de 0.47 nF en serie con resistencia de 29 kOhm 
#  Frecuencia [Hz], Z [Ohm], Fase [°]
2.000000000000000000e+01,3.314690000000000146e+04,-3.206040000000000134e+01
2.037349999999999994e+01,3.297580000000000291e+04,-3.158889999999999887e+01
2.075260000000000105e+01,3.281140000000000146e+04,-3.111949999999999861e+01
2.114020000000000010e+01,3.265140000000000146e+04,-3.065230000000000032e+01
2.153320000000000078e+01,3.249700000000000000e+04,-3.019050000000000011e+01
2.193459999999999965e+01,3.234759999999999854e+04,-2.973260000000000147e+01
2.234299999999999997e+01,3.220290000000000146e+04,-2.927990000000000137e+01
2.275829999999999842e+01,3.206159999999999854e+04,-2.883589999999999876e+01
2.318209999999999837e+01,3.192579999999999927e+04,-2.839189999999999969e+01
2.361459999999999937e+01,3.179459999999999854e+04,-2.795100000000000051e+01
2.405580000000000140e+01,3.166690000000000146e+04,-2.751559999999999917e+01
2.450379999999999825e+01,3.154370000000000073e+04,-2.708439999999999870e+01
2.496049999999999969e+01,3.142459999999999854e+04,-2.665889999999999915e+01
2.542589999999999861e+01,3.130929999999999927e+04,-2.623710000000000164e+01
2.589780000000000015e+01,3.119850000000000000e+04,-2.582199999999999918e+01
2.638060000000000116e+01,3.109090000000000146e+04,-2.540990000000000038e+01
2.687209999999999965e+01,3.098640000000000146e+04,-2.500329999999999941e+01
2.737229999999999919e+01,3.088559999999999854e+04,-2.460219999999999985e+01
2.788360000000000127e+01,3.078840000000000146e+04,-2.420139999999999958e+01
2.840099999999999980e+01,3.069520000000000073e+04,-2.381159999999999854e+01
2.893240000000000123e+01,3.060350000000000000e+04,-2.342010000000000147e+01
2.946950000000000003e+01,3.051440000000000146e+04,-2.304360000000000142e+01
3.001800000000000068e+01,3.043059999999999854e+04,-2.266489999999999938e+01
3.057789999999999964e+01,3.034870000000000073e+04,-2.229040000000000177e+01
3.114939999999999998e+01,3.026840000000000146e+04,-2.192160000000000153e+01
3.172919999999999874e+01,3.019300000000000000e+04,-2.155709999999999837e+01
3.232059999999999889e+01,3.011609999999999854e+04,-2.120159999999999911e+01
3.292000000000000171e+01,3.004500000000000000e+04,-2.084700000000000131e+01
3.353450000000000131e+01,2.997770000000000073e+04,-2.049419999999999931e+01
3.416080000000000183e+01,2.990929999999999927e+04,-2.015909999999999869e+01
3.479869999999999663e+01,2.984650000000000000e+04,-1.981879999999999953e+01
3.544420000000000215e+01,2.978409999999999854e+04,-1.948519999999999897e+01
3.610540000000000305e+01,2.972290000000000146e+04,-1.915109999999999957e+01
3.677819999999999823e+01,2.966520000000000073e+04,-1.882590000000000074e+01
3.746249999999999858e+01,2.960840000000000146e+04,-1.850779999999999959e+01
3.815820000000000078e+01,2.955540000000000146e+04,-1.818850000000000122e+01
3.887019999999999698e+01,2.949990000000000146e+04,-1.788220000000000098e+01
3.959349999999999881e+01,2.945300000000000000e+04,-1.758269999999999911e+01
4.033339999999999748e+01,2.940400000000000000e+04,-1.727819999999999823e+01
4.108460000000000178e+01,2.935270000000000073e+04,-1.697850000000000037e+01
4.185269999999999868e+01,2.931179999999999927e+04,-1.668390000000000128e+01
4.263179999999999836e+01,2.926540000000000146e+04,-1.639699999999999847e+01
4.342159999999999798e+01,2.922590000000000146e+04,-1.610950000000000060e+01
4.423469999999999658e+01,2.918309999999999854e+04,-1.583089999999999975e+01
4.505859999999999843e+01,2.914390000000000146e+04,-1.555610000000000070e+01
4.589959999999999951e+01,2.910459999999999854e+04,-1.528509999999999991e+01
4.675079999999999814e+01,2.906879999999999927e+04,-1.502360000000000007e+01
4.761899999999999977e+01,2.903709999999999854e+04,-1.475600000000000023e+01
4.851230000000000331e+01,2.900220000000000073e+04,-1.449080000000000013e+01
4.941530000000000200e+01,2.896759999999999854e+04,-1.423719999999999963e+01
5.033559999999999945e+01,2.893690000000000146e+04,-1.399029999999999951e+01
5.127329999999999899e+01,2.890679999999999927e+04,-1.375380000000000003e+01
5.222840000000000060e+01,2.887320000000000073e+04,-1.351149999999999984e+01
5.320089999999999719e+01,2.884220000000000073e+04,-1.326559999999999917e+01
5.419080000000000297e+01,2.881509999999999854e+04,-1.303069999999999951e+01
5.519780000000000086e+01,2.878940000000000146e+04,-1.280189999999999984e+01
5.623239999999999839e+01,2.876450000000000000e+04,-1.257719999999999949e+01
5.727380000000000138e+01,2.874040000000000146e+04,-1.235609999999999964e+01
5.834309999999999974e+01,2.871670000000000073e+04,-1.213640000000000008e+01
5.942949999999999733e+01,2.869150000000000000e+04,-1.191849999999999987e+01
6.054489999999999839e+01,2.866859999999999854e+04,-1.170400000000000063e+01
6.166499999999999915e+01,2.865220000000000073e+04,-1.150769999999999982e+01
6.281410000000000338e+01,2.863229999999999927e+04,-1.129969999999999963e+01
6.397950000000000159e+01,2.860590000000000146e+04,-1.109909999999999997e+01
6.517489999999999384e+01,2.858829999999999927e+04,-1.090349999999999930e+01
6.638639999999999475e+01,2.857170000000000073e+04,-1.069890000000000008e+01
6.762850000000000250e+01,2.855550000000000000e+04,-1.050810000000000066e+01
6.888630000000000564e+01,2.853329999999999927e+04,-1.032130000000000081e+01
7.017539999999999623e+01,2.852150000000000000e+04,-1.013879999999999981e+01
7.147960000000000491e+01,2.850200000000000000e+04,-9.962960000000000704e+00
7.281550000000000011e+01,2.848650000000000000e+04,-9.783530000000000726e+00
7.416559999999999775e+01,2.847440000000000146e+04,-9.603369999999999962e+00
7.554770000000000607e+01,2.845790000000000146e+04,-9.431340000000000501e+00
7.696250000000000568e+01,2.844309999999999854e+04,-9.264400000000000190e+00
7.839039999999999964e+01,2.842970000000000073e+04,-9.097630000000000550e+00
7.985089999999999577e+01,2.841729999999999927e+04,-8.933109999999999218e+00
8.134489999999999554e+01,2.840500000000000000e+04,-8.771160000000000068e+00
8.284999999999999432e+01,2.839279999999999927e+04,-8.614620000000000388e+00
8.438819999999999766e+01,2.837940000000000146e+04,-8.461510000000000531e+00
8.598449999999999704e+01,2.837059999999999854e+04,-8.305699999999999861e+00
8.756570000000000675e+01,2.835770000000000073e+04,-8.158960000000000434e+00
8.920610000000000639e+01,2.835079999999999927e+04,-8.007179999999999964e+00
9.085399999999999920e+01,2.834159999999999854e+04,-7.863059999999999938e+00
9.256399999999999295e+01,2.832829999999999927e+04,-7.720690000000000275e+00
9.428029999999999688e+01,2.832070000000000073e+04,-7.588289999999999758e+00
9.603069999999999595e+01,2.831359999999999854e+04,-7.444530000000000314e+00
9.784739999999999327e+01,2.830000000000000000e+04,-7.310360000000000191e+00
9.966779999999999973e+01,2.829620000000000073e+04,-7.179400000000000226e+00
1.015229999999999961e+02,2.828529999999999927e+04,-7.053539999999999921e+00
1.034129999999999967e+02,2.827959999999999854e+04,-6.918650000000000411e+00
1.053370000000000033e+02,2.826709999999999854e+04,-6.797060000000000102e+00
1.072960000000000065e+02,2.825959999999999854e+04,-6.674159999999999648e+00
1.092900000000000063e+02,2.825900000000000000e+04,-6.554660000000000153e+00
1.113169999999999931e+02,2.825059999999999854e+04,-6.436560000000000059e+00
1.134219999999999970e+02,2.824200000000000000e+04,-6.313909999999999911e+00
1.155180000000000007e+02,2.823729999999999927e+04,-6.205009999999999692e+00
1.176470000000000056e+02,2.822720000000000073e+04,-6.089690000000000047e+00
1.198559999999999945e+02,2.822170000000000073e+04,-5.980220000000000091e+00
1.220999999999999943e+02,2.821620000000000073e+04,-5.873619999999999841e+00
1.243780000000000001e+02,2.821340000000000146e+04,-5.769809999999999661e+00
1.266889999999999930e+02,2.820759999999999854e+04,-5.663030000000000008e+00
1.290320000000000107e+02,2.820290000000000146e+04,-5.557400000000000340e+00
1.314639999999999986e+02,2.819770000000000073e+04,-5.456059999999999910e+00
1.339290000000000020e+02,2.819320000000000073e+04,-5.357910000000000394e+00
1.363640000000000043e+02,2.818879999999999927e+04,-5.263239999999999696e+00
1.389530000000000030e+02,2.818479999999999927e+04,-5.166690000000000005e+00
1.415089999999999861e+02,2.818070000000000073e+04,-5.078030000000000044e+00
1.441610000000000014e+02,2.817800000000000000e+04,-4.975509999999999877e+00
1.468429999999999893e+02,2.817420000000000073e+04,-4.887129999999999974e+00
1.495509999999999877e+02,2.816770000000000073e+04,-4.800250000000000128e+00
1.523619999999999948e+02,2.816740000000000146e+04,-4.713969999999999771e+00
1.551990000000000123e+02,2.816159999999999854e+04,-4.626000000000000334e+00
1.580610000000000070e+02,2.815840000000000146e+04,-4.540600000000000414e+00
1.610310000000000059e+02,2.815770000000000073e+04,-4.462559999999999860e+00
1.640240000000000009e+02,2.815140000000000146e+04,-4.379570000000000185e+00
1.671310000000000002e+02,2.814729999999999927e+04,-4.300989999999999647e+00
1.702609999999999957e+02,2.814429999999999927e+04,-4.223370000000000068e+00
1.734099999999999966e+02,2.814390000000000146e+04,-4.147560000000000358e+00
1.765740000000000123e+02,2.814170000000000073e+04,-4.068979999999999819e+00
1.799639999999999986e+02,2.813759999999999854e+04,-3.992090000000000138e+00
1.832620000000000005e+02,2.813540000000000146e+04,-3.925159999999999982e+00
1.866829999999999927e+02,2.813040000000000146e+04,-3.853209999999999802e+00
1.901140000000000043e+02,2.812890000000000146e+04,-3.781460000000000043e+00
1.936730000000000018e+02,2.812779999999999927e+04,-3.714119999999999866e+00
1.973679999999999950e+02,2.812720000000000073e+04,-3.646300000000000097e+00
2.009379999999999882e+02,2.812409999999999854e+04,-3.579200000000000159e+00
2.047779999999999916e+02,2.812190000000000146e+04,-3.511219999999999786e+00
2.086229999999999905e+02,2.812150000000000000e+04,-3.445710000000000051e+00
2.124650000000000034e+02,2.811709999999999854e+04,-3.388630000000000031e+00
2.164499999999999886e+02,2.811720000000000073e+04,-3.323789999999999800e+00
2.204259999999999877e+02,2.811629999999999927e+04,-3.263399999999999856e+00
2.245509999999999877e+02,2.811279999999999927e+04,-3.203250000000000153e+00
2.286589999999999918e+02,2.811209999999999854e+04,-3.145610000000000017e+00
2.329190000000000111e+02,2.810909999999999854e+04,-3.090100000000000069e+00
2.373420000000000130e+02,2.810859999999999854e+04,-3.032589999999999897e+00
2.417410000000000139e+02,2.810629999999999927e+04,-2.979369999999999852e+00
2.463050000000000068e+02,2.810570000000000073e+04,-2.921809999999999796e+00
2.508360000000000127e+02,2.810570000000000073e+04,-2.869460000000000122e+00
2.555370000000000061e+02,2.810279999999999927e+04,-2.815760000000000041e+00
2.601909999999999741e+02,2.810340000000000146e+04,-2.766270000000000007e+00
2.650179999999999723e+02,2.810120000000000073e+04,-2.714449999999999807e+00
2.700269999999999868e+02,2.810120000000000073e+04,-2.665290000000000159e+00
2.752289999999999850e+02,2.809850000000000000e+04,-2.616109999999999935e+00
2.801120000000000232e+02,2.809720000000000073e+04,-2.570500000000000007e+00
2.854420000000000073e+02,2.809579999999999927e+04,-2.523569999999999869e+00
2.906979999999999791e+02,2.809340000000000146e+04,-2.477529999999999788e+00
2.961499999999999773e+02,2.809290000000000146e+04,-2.429940000000000211e+00
3.018109999999999786e+02,2.809240000000000146e+04,-2.386899999999999800e+00
3.073770000000000095e+02,2.809290000000000146e+04,-2.343490000000000073e+00
3.131519999999999868e+02,2.809050000000000000e+04,-2.300370000000000026e+00
3.188100000000000023e+02,2.809000000000000000e+04,-2.260089999999999932e+00
3.250269999999999868e+02,2.808909999999999854e+04,-2.215860000000000163e+00
3.307610000000000241e+02,2.808929999999999927e+04,-2.177529999999999966e+00
3.370790000000000077e+02,2.808840000000000146e+04,-2.137000000000000011e+00
3.432490000000000236e+02,2.808709999999999854e+04,-2.097500000000000142e+00
3.496499999999999773e+02,2.808629999999999927e+04,-2.060880000000000045e+00
3.562950000000000159e+02,2.808579999999999927e+04,-2.021310000000000162e+00
3.627570000000000050e+02,2.808590000000000146e+04,-1.988739999999999952e+00
3.694580000000000268e+02,2.808500000000000000e+04,-1.950190000000000090e+00
3.764119999999999777e+02,2.808440000000000146e+04,-1.915229999999999988e+00
3.836320000000000050e+02,2.808290000000000146e+04,-1.880160000000000053e+00
3.906250000000000000e+02,2.808150000000000000e+04,-1.845620000000000038e+00
3.978779999999999859e+02,2.808220000000000073e+04,-1.812769999999999992e+00
4.054049999999999727e+02,2.808240000000000146e+04,-1.777060000000000084e+00
4.132230000000000132e+02,2.808100000000000000e+04,-1.743800000000000017e+00
4.207570000000000050e+02,2.808120000000000073e+04,-1.714920000000000000e+00
4.285710000000000264e+02,2.808140000000000146e+04,-1.681720000000000104e+00
4.366809999999999832e+02,2.808020000000000073e+04,-1.650579999999999936e+00
4.444440000000000168e+02,2.808090000000000146e+04,-1.622230000000000061e+00
4.531720000000000255e+02,2.807900000000000000e+04,-1.592289999999999983e+00
4.615380000000000109e+02,2.808050000000000000e+04,-1.563460000000000072e+00
4.702189999999999941e+02,2.807809999999999854e+04,-1.534429999999999961e+00
4.784689999999999941e+02,2.807920000000000073e+04,-1.508099999999999996e+00
4.878050000000000068e+02,2.807759999999999854e+04,-1.477659999999999973e+00
4.966890000000000214e+02,2.807940000000000146e+04,-1.452280000000000015e+00
5.059019999999999868e+02,2.807720000000000073e+04,-1.427249999999999908e+00
5.154640000000000555e+02,2.807750000000000000e+04,-1.401200000000000001e+00
5.253940000000000055e+02,2.807679999999999927e+04,-1.374400000000000066e+00
5.347590000000000146e+02,2.807650000000000000e+04,-1.350340000000000096e+00
5.444650000000000318e+02,2.807609999999999854e+04,-1.325380000000000003e+00
5.545289999999999964e+02,2.807659999999999854e+04,-1.302529999999999966e+00
5.649719999999999800e+02,2.807550000000000000e+04,-1.276769999999999960e+00
5.758160000000000309e+02,2.807659999999999854e+04,-1.252769999999999939e+00
5.870839999999999463e+02,2.807600000000000000e+04,-1.229249999999999954e+00
5.976100000000000136e+02,2.807490000000000146e+04,-1.208199999999999941e+00
6.085190000000000055e+02,2.807500000000000000e+04,-1.185410000000000075e+00
6.198350000000000364e+02,2.807590000000000146e+04,-1.163750000000000062e+00
6.315789999999999509e+02,2.807500000000000000e+04,-1.142940000000000067e+00
6.437770000000000437e+02,2.807370000000000073e+04,-1.120610000000000106e+00
6.550220000000000482e+02,2.807409999999999854e+04,-1.102749999999999897e+00
6.681509999999999536e+02,2.807440000000000146e+04,-1.082109999999999905e+00
6.802720000000000482e+02,2.807440000000000146e+04,-1.062580000000000080e+00
6.928410000000000082e+02,2.807429999999999927e+04,-1.044440000000000035e+00
7.058819999999999482e+02,2.807329999999999927e+04,-1.024469999999999992e+00
7.194239999999999782e+02,2.807390000000000146e+04,-1.005940000000000056e+00
7.317069999999999936e+02,2.807329999999999927e+04,-9.890949999999999465e-01
7.462690000000000055e+02,2.807359999999999854e+04,-9.689750000000000307e-01
7.594940000000000282e+02,2.807320000000000073e+04,-9.518999999999999684e-01
7.731960000000000264e+02,2.807270000000000073e+04,-9.361639999999999961e-01
7.894740000000000464e+02,2.807250000000000000e+04,-9.171810000000000240e-01
8.021390000000000100e+02,2.807270000000000073e+04,-9.033349999999999991e-01
8.174389999999999645e+02,2.807250000000000000e+04,-8.863180000000000502e-01
8.333329999999999700e+02,2.807240000000000146e+04,-8.698299999999999921e-01
8.498579999999999472e+02,2.807209999999999854e+04,-8.523910000000000098e-01
8.645529999999999973e+02,2.807240000000000146e+04,-8.379100000000000437e-01
8.797649999999999864e+02,2.807179999999999927e+04,-8.236059999999999492e-01
8.982039999999999509e+02,2.807200000000000000e+04,-8.063399999999999457e-01
9.146340000000000146e+02,2.807159999999999854e+04,-7.920420000000000238e-01
9.316770000000000209e+02,2.807140000000000146e+04,-7.786159999999999748e-01
9.493669999999999618e+02,2.807129999999999927e+04,-7.641369999999999552e-01
9.677419999999999618e+02,2.807079999999999927e+04,-7.494370000000000198e-01
9.836069999999999709e+02,2.807100000000000000e+04,-7.371779999999999999e-01
1.003340000000000032e+03,2.807100000000000000e+04,-7.235249999999999737e-01
1.020409999999999968e+03,2.807079999999999927e+04,-7.115879999999999983e-01
1.041670000000000073e+03,2.807109999999999854e+04,-6.972639999999999949e-01
1.060069999999999936e+03,2.807100000000000000e+04,-6.853829999999999645e-01
1.079140000000000100e+03,2.807090000000000146e+04,-6.730439999999999756e-01
1.098900000000000091e+03,2.807079999999999927e+04,-6.612329999999999597e-01
1.119400000000000091e+03,2.807040000000000146e+04,-6.496830000000000105e-01
1.140680000000000064e+03,2.807179999999999927e+04,-6.375229999999999508e-01
1.162789999999999964e+03,2.807050000000000000e+04,-6.265249999999999986e-01
1.185769999999999982e+03,2.807059999999999854e+04,-6.140719999999999512e-01
1.204819999999999936e+03,2.807009999999999854e+04,-6.043079999999999563e-01
1.229509999999999991e+03,2.807040000000000146e+04,-5.926590000000000469e-01
1.250000000000000000e+03,2.807000000000000000e+04,-5.830039999999999667e-01
1.276599999999999909e+03,2.807000000000000000e+04,-5.715470000000000272e-01
1.298700000000000045e+03,2.807009999999999854e+04,-5.618950000000000333e-01
1.321589999999999918e+03,2.806990000000000146e+04,-5.525299999999999656e-01
1.345289999999999964e+03,2.806979999999999927e+04,-5.425200000000000022e-01
1.376150000000000091e+03,2.806970000000000073e+04,-5.314759999999999485e-01
1.401869999999999891e+03,2.807000000000000000e+04,-5.221749999999999448e-01
1.421799999999999955e+03,2.807000000000000000e+04,-5.147359999999999713e-01
1.449279999999999973e+03,2.806979999999999927e+04,-5.047920000000000185e-01
1.477829999999999927e+03,2.806959999999999854e+04,-4.956389999999999962e-01
1.507539999999999964e+03,2.806959999999999854e+04,-4.859890000000000043e-01
1.530609999999999900e+03,2.806959999999999854e+04,-4.788749999999999951e-01
1.562500000000000000e+03,2.807009999999999854e+04,-4.691549999999999887e-01
1.595740000000000009e+03,2.806990000000000146e+04,-4.600600000000000245e-01
1.621619999999999891e+03,2.807000000000000000e+04,-4.526789999999999980e-01
1.648349999999999909e+03,2.806950000000000000e+04,-4.454879999999999951e-01
1.685390000000000100e+03,2.806950000000000000e+04,-4.362039999999999806e-01
1.714289999999999964e+03,2.806950000000000000e+04,-4.288230000000000097e-01
1.744190000000000055e+03,2.806909999999999854e+04,-4.215530000000000110e-01
1.775150000000000091e+03,2.806940000000000146e+04,-4.149490000000000123e-01
1.807230000000000018e+03,2.806920000000000073e+04,-4.083689999999999820e-01
1.851849999999999909e+03,2.806929999999999927e+04,-3.985290000000000221e-01
1.875000000000000000e+03,2.806970000000000073e+04,-3.938169999999999726e-01
1.910829999999999927e+03,2.806929999999999927e+04,-3.869690000000000074e-01
1.948049999999999955e+03,2.806929999999999927e+04,-3.795229999999999992e-01
1.986759999999999991e+03,2.806940000000000146e+04,-3.723429999999999795e-01
2.027029999999999973e+03,2.806920000000000073e+04,-3.661670000000000202e-01
2.068969999999999800e+03,2.806929999999999927e+04,-3.588890000000000136e-01
2.097900000000000091e+03,2.806970000000000073e+04,-3.542399999999999993e-01
2.142860000000000127e+03,2.806950000000000000e+04,-3.474590000000000178e-01
2.173909999999999854e+03,2.806940000000000146e+04,-3.424550000000000094e-01
2.222219999999999800e+03,2.806950000000000000e+04,-3.360170000000000101e-01
2.255639999999999873e+03,2.806920000000000073e+04,-3.309810000000000252e-01
2.307690000000000055e+03,2.806940000000000146e+04,-3.241740000000000177e-01
2.343750000000000000e+03,2.806920000000000073e+04,-3.192119999999999957e-01
2.400000000000000000e+03,2.806900000000000000e+04,-3.126209999999999822e-01
2.439019999999999982e+03,2.806920000000000073e+04,-3.076920000000000210e-01
