# Frecuencia que pedimos vs frecuencia que manda 
#  Frecuencia pedida [Hz], Frecuencia LCR [Hz]
2.000000000000000355e+01,2.000000000000000000e+01
2.018524381974095050e+01,2.018570000000000064e+01
2.037220340311951716e+01,2.037209999999999965e+01
2.056089464186618798e+01,2.056200000000000117e+01
2.075133357490372177e+01,2.075120000000000076e+01
2.094353638971040965e+01,2.094529999999999959e+01
2.113751942369608372e+01,2.113870000000000005e+01
2.133329916559079109e+01,2.133409999999999940e+01
2.153089225684631103e+01,2.153160000000000096e+01
2.173031549305077093e+01,2.173130000000000095e+01
2.193158582535620127e+01,2.193299999999999983e+01
2.213472036191947012e+01,2.213530000000000086e+01
2.233973636935646567e+01,2.234140000000000015e+01
2.254665127420973292e+01,2.254789999999999850e+01
2.275548266442983092e+01,2.275659999999999883e+01
2.296624829087022590e+01,2.296740000000000137e+01
2.317896606879621402e+01,2.318029999999999902e+01
2.339365407940770680e+01,2.339549999999999841e+01
2.361033057137610314e+01,2.361090000000000089e+01
2.382901396239552128e+01,2.383030000000000115e+01
2.404972284074824884e+01,2.405000000000000071e+01
2.427247596688481224e+01,2.427380000000000138e+01
2.449729227501862994e+01,2.449780000000000157e+01
2.472419087473537402e+01,2.472599999999999909e+01
2.495319105261739878e+01,2.495429999999999993e+01
2.518431227388302318e+01,2.518469999999999942e+01
2.541757418404117885e+01,2.541939999999999955e+01
2.565299661056121394e+01,2.565419999999999945e+01
2.589059956455831113e+01,2.589110000000000156e+01
2.613040324249442747e+01,2.613009999999999877e+01
2.637242802789497276e+01,2.637359999999999971e+01
2.661669449308151059e+01,2.661929999999999907e+01
2.686322340092032235e+01,2.686489999999999867e+01
2.711203570658736695e+01,2.711250000000000071e+01
2.736315255934944091e+01,2.736479999999999890e+01
2.761659530436185150e+01,2.761919999999999931e+01
2.787238548448285869e+01,2.787330000000000041e+01
2.813054484210474726e+01,2.813200000000000145e+01
2.839109532100203381e+01,2.839300000000000068e+01
2.865405906819662363e+01,2.865599999999999881e+01
2.891945843584039721e+01,2.892119999999999891e+01
2.918731598311514119e+01,2.918860000000000099e+01
2.945765447815005444e+01,2.946089999999999876e+01
2.973049689995714573e+01,2.973239999999999839e+01
3.000586644038437001e+01,3.000600000000000023e+01
3.028378650608704348e+01,3.028470000000000084e+01
3.056428072051740585e+01,3.056550000000000011e+01
3.084737292593256797e+01,3.084829999999999828e+01
3.113308718542124609e+01,3.113329999999999842e+01
3.142144778494901303e+01,3.142350000000000065e+01
3.171247923542274805e+01,3.171249999999999858e+01
3.200620627477402280e+01,3.200679999999999836e+01
3.230265387006181044e+01,3.230319999999999681e+01
3.260184721959483056e+01,3.260520000000000351e+01
3.290381175507325651e+01,3.290559999999999974e+01
3.320857314375059843e+01,3.321159999999999712e+01
3.351615729061536086e+01,3.351959999999999695e+01
3.382659034059296488e+01,3.382950000000000301e+01
3.413989868076816236e+01,3.414130000000000109e+01
3.445610894262788548e+01,3.445900000000000318e+01
3.477524800432501451e+01,3.477859999999999729e+01
3.509734299296302851e+01,3.510000000000000142e+01
3.542242128690175917e+01,3.542329999999999757e+01
3.575051051808471669e+01,3.575260000000000105e+01
3.608163857438766087e+01,3.608370000000000033e+01
3.641583360198925590e+01,3.641660000000000252e+01
3.675312400776343225e+01,3.675569999999999737e+01
3.709353846169397428e+01,3.709660000000000224e+01
3.743710589931158950e+01,3.743919999999999959e+01
3.778385552415333137e+01,3.778810000000000002e+01
3.813381681024504388e+01,3.813880000000000337e+01
3.848701950460662857e+01,3.849110000000000298e+01
3.884349362978051090e+01,3.884499999999999886e+01
3.920326948638371789e+01,3.920539999999999736e+01
3.956637765568329002e+01,3.956739999999999924e+01
3.993284900219587286e+01,3.993610000000000326e+01
4.030271467631115456e+01,4.030630000000000024e+01
4.067600611693962520e+01,4.067799999999999727e+01
4.105275505418504878e+01,4.105649999999999977e+01
4.143299351204138503e+01,4.143650000000000233e+01
4.181675381111500656e+01,4.181770000000000209e+01
4.220406857137191281e+01,4.220600000000000307e+01
4.259497071491040288e+01,4.259550000000000125e+01
4.298949346875961908e+01,4.299230000000000018e+01
4.338767036770369145e+01,4.339020000000000010e+01
4.378953525713242101e+01,4.379560000000000031e+01
4.419512229591804697e+01,4.419559999999999889e+01
4.460446595931875180e+01,4.460969999999999658e+01
4.501760104190923784e+01,4.501800000000000068e+01
4.543456266053810566e+01,4.544080000000000297e+01
4.585538625731297913e+01,4.585750000000000171e+01
4.628010760261306444e+01,4.628199999999999648e+01
4.670876279812959098e+01,4.671439999999999770e+01
4.714138827993456005e+01,4.714759999999999707e+01
4.757802082157787282e+01,4.758129999999999882e+01
4.801869753721304335e+01,4.802309999999999945e+01
4.846345588475199406e+01,4.846529999999999916e+01
4.891233366904894098e+01,4.891570000000000107e+01
4.936536904511385870e+01,4.936650000000000205e+01
4.982260052135577411e+01,4.982560000000000144e+01
5.028406696285593824e+01,5.028490000000000038e+01
5.074980759467141667e+01,5.075280000000000058e+01
5.121986200516919752e+01,5.122079999999999700e+01
5.169427014939127929e+01,5.169740000000000180e+01
5.217307235245096564e+01,5.217390000000000327e+01
5.265630931296043116e+01,5.265930000000000177e+01
5.314402210649011238e+01,5.314439999999999742e+01
5.363625218906032188e+01,5.363850000000000051e+01
5.413304140066483683e+01,5.414189999999999969e+01
5.463443196882753483e+01,5.463490000000000180e+01
5.514046651219168638e+01,5.514710000000000178e+01
5.565118804414249354e+01,5.565859999999999985e+01
5.616663997646345763e+01,5.616929999999999978e+01
5.668686612302619210e+01,5.668930000000000291e+01
5.721191070351484598e+01,5.721920000000000073e+01
5.774181834718473283e+01,5.774779999999999802e+01
5.827663409665574790e+01,5.828640000000000043e+01
5.881640341174128395e+01,5.882350000000000279e+01
5.936117217331205609e+01,5.937069999999999936e+01
5.991098668719627085e+01,5.991610000000000014e+01
6.046589368811556398e+01,6.047169999999999845e+01
6.102594034365739617e+01,6.103759999999999764e+01
6.159117425828453918e+01,6.160159999999999769e+01
6.216164347738128271e+01,6.216329999999999956e+01
6.273739649133753460e+01,6.274839999999999662e+01
6.331848223967045186e+01,6.333120000000000260e+01
6.390495011518424917e+01,6.391140000000000043e+01
6.449684996816884563e+01,6.450230000000000530e+01
6.509423211063696613e+01,6.510420000000000584e+01
6.569714732060087670e+01,6.570300000000000296e+01
6.630564684638851247e+01,6.631300000000000239e+01
6.691978241099947411e+01,6.693439999999999657e+01
6.753960621650183782e+01,6.755240000000000578e+01
6.816517094846905422e+01,6.816630000000000678e+01
6.879652978045849920e+01,6.880729999999999791e+01
6.943373637853123626e+01,6.944440000000000168e+01
7.007684490581348769e+01,7.007710000000000150e+01
7.072591002710086627e+01,7.073799999999999955e+01
7.138098691350460001e+01,7.139459999999999695e+01
7.204213124714141259e+01,7.204609999999999559e+01
7.270939922586640591e+01,7.270959999999999468e+01
7.338284756804988263e+01,7.338549999999999329e+01
7.406253351739854907e+01,7.407410000000000139e+01
7.474851484782129774e+01,7.475700000000000500e+01
7.544084986833995288e+01,7.545269999999999300e+01
7.613959742804573239e+01,7.614209999999999923e+01
7.684481692110122708e+01,7.686400000000000432e+01
7.755656829178916212e+01,7.755949999999999989e+01
7.827491203960768473e+01,7.828810000000000002e+01
7.899990922441287466e+01,7.900969999999999516e+01
7.973162147160883251e+01,7.974479999999999791e+01
8.047011097738587182e+01,8.047209999999999752e+01
8.121544051400731234e+01,8.123480000000000700e+01
8.196767343514524384e+01,8.198959999999999582e+01
8.272687368126548790e+01,8.273579999999999757e+01
8.349310578506275249e+01,8.349569999999999936e+01
8.426643487694579449e+01,8.426970000000000027e+01
8.504692669057365606e+01,8.505809999999999604e+01
8.583464756844315957e+01,8.583689999999999998e+01
8.662966446752798788e+01,8.663009999999999877e+01
8.743204496497010325e+01,8.743810000000000571e+01
8.824185726382381745e+01,8.826130000000000564e+01
8.905917019885312413e+01,8.907359999999999900e+01
8.988405324238284777e+01,8.990109999999999957e+01
9.071657651020373692e+01,9.074410000000000309e+01
9.155681076753238301e+01,9.157510000000000616e+01
9.240482743502627727e+01,9.242140000000000555e+01
9.326069859485464519e+01,9.328360000000000696e+01
9.412449699682564130e+01,9.413240000000000407e+01
9.499629606457000364e+01,9.499679999999999325e+01
9.587616990178220533e+01,9.587730000000000530e+01
9.676419329851916018e+01,9.677419999999999334e+01
9.766044173755760482e+01,9.768800000000000239e+01
9.856499140081028543e+01,9.858689999999999998e+01
9.947791917580126153e+01,9.950249999999999773e+01
1.003993026622015918e+02,1.004020000000000010e+02
1.013292201784253876e+02,1.013509999999999991e+02
1.022677507682865325e+02,1.022840000000000060e+02
1.032149742077181571e+02,1.032349999999999994e+02
1.041709710115532204e+02,1.042030000000000030e+02
1.051358224403684005e+02,1.051520000000000010e+02
1.061096105073914941e+02,1.061200000000000045e+02
1.070924179854721672e+02,1.071050000000000040e+02
1.080843284141183176e+02,1.081080000000000041e+02
1.090854261065967421e+02,1.090909999999999940e+02
1.100957961570993717e+02,1.101320000000000050e+02
1.111155244479775774e+02,1.111520000000000010e+02
1.121446976570406662e+02,1.121500000000000057e+02
1.131834032649248627e+02,1.132079999999999984e+02
1.142317295625287130e+02,1.142420000000000044e+02
1.152897656585174815e+02,1.152960000000000065e+02
1.163576014868987158e+02,1.163689999999999998e+02
1.174353278146651292e+02,1.174629999999999939e+02
1.185230362495110654e+02,1.185300000000000011e+02
1.196208192476188970e+02,1.196650000000000063e+02
1.207287701215172859e+02,1.207729999999999961e+02
1.218469830480142519e+02,1.218520000000000039e+02
1.229755530762004838e+02,1.230010000000000048e+02
1.241145761355300294e+02,1.241209999999999951e+02
1.252641490439738590e+02,1.253130000000000024e+02
1.264243695162489871e+02,1.264759999999999991e+02
1.275953361721256698e+02,1.276050000000000040e+02
1.287771485448083979e+02,1.288110000000000070e+02
1.299699070893977932e+02,1.299830000000000041e+02
1.311737131914287318e+02,1.311759999999999877e+02
1.323886691754879052e+02,1.323919999999999959e+02
1.336148783139122997e+02,1.336299999999999955e+02
1.348524448355668710e+02,1.348919999999999959e+02
1.361014739347041598e+02,1.361160000000000139e+02
1.373620717799061595e+02,1.373629999999999995e+02
1.386343455231081521e+02,1.386959999999999980e+02
1.399184033087074965e+02,1.399250000000000114e+02
1.412143542827554654e+02,1.412429999999999950e+02
1.425223086022349150e+02,1.425860000000000127e+02
1.438423774444238745e+02,1.438849999999999909e+02
1.451746730163450820e+02,1.452079999999999984e+02
1.465193085643046231e+02,1.465560000000000116e+02
1.478763983835173406e+02,1.479290000000000020e+02
1.492460578278221703e+02,1.492539999999999907e+02
1.506284033194875462e+02,1.506779999999999973e+02
1.520235523591066169e+02,1.520529999999999973e+02
1.534316235355860556e+02,1.534530000000000030e+02
1.548527365362254216e+02,1.548789999999999907e+02
1.562870121568908530e+02,1.563309999999999889e+02
1.577345723122831487e+02,1.578120000000000118e+02
1.591955400462997261e+02,1.592359999999999900e+02
1.606700395424947203e+02,1.606860000000000070e+02
1.621581961346337550e+02,1.621620000000000061e+02
1.636601363173478205e+02,1.636659999999999968e+02
1.651759877568854620e+02,1.651980000000000075e+02
1.667058793019639324e+02,1.667589999999999861e+02
1.682499409947223796e+02,1.682560000000000002e+02
1.698083040817749634e+02,1.698750000000000000e+02
1.713811010253669735e+02,1.714290000000000020e+02
1.729684655146345449e+02,1.730099999999999909e+02
1.745705324769676281e+02,1.746220000000000141e+02
1.761874380894798549e+02,1.762630000000000052e+02
1.778193197905831937e+02,1.778300000000000125e+02
1.794663162916704096e+02,1.795329999999999870e+02
1.811285675889058950e+02,1.811589999999999918e+02
1.828062149751246750e+02,1.828149999999999977e+02
1.844994010518435061e+02,1.845020000000000095e+02
1.862082697413815424e+02,1.862199999999999989e+02
1.879329662990938346e+02,1.879699999999999989e+02
1.896736373257185733e+02,1.897529999999999859e+02
1.914304307798373372e+02,1.914490000000000123e+02
1.932034959904529501e+02,1.932990000000000066e+02
1.949929836696817631e+02,1.950589999999999975e+02
1.967990459255645419e+02,1.968499999999999943e+02
1.986218362749960420e+02,1.986750000000000114e+02
2.004615096567731030e+02,2.005349999999999966e+02
2.023182224447659792e+02,2.024290000000000020e+02
2.041921324612093258e+02,2.042210000000000036e+02
2.060833989901175300e+02,2.061860000000000070e+02
2.079921827908241028e+02,2.080440000000000111e+02
2.099186461116455575e+02,2.099370000000000118e+02
2.118629527036740399e+02,2.118640000000000043e+02
2.138252678346952393e+02,2.138280000000000030e+02
2.158057583032367575e+02,2.158269999999999982e+02
2.178045924527461352e+02,2.178650000000000091e+02
2.198219401858994786e+02,2.199410000000000025e+02
2.218579729790445754e+02,2.218930000000000007e+02
2.239128638967756899e+02,2.240480000000000018e+02
2.259867876066443557e+02,2.260740000000000123e+02
2.280799203940066491e+02,2.281370000000000005e+02
2.301924401770064890e+02,2.302379999999999995e+02
2.323245265217003919e+02,2.323779999999999859e+02
2.344763606573197308e+02,2.345579999999999927e+02
2.366481254916756427e+02,2.367800000000000011e+02
2.388400056267065281e+02,2.388540000000000134e+02
2.410521873741685397e+02,2.411579999999999870e+02
2.432848587714736368e+02,2.433089999999999975e+02
2.455382095976718517e+02,2.456999999999999886e+02
2.478124313895831676e+02,2.479339999999999975e+02
2.501077174580782980e+02,2.502090000000000032e+02
2.524242629045095043e+02,2.525250000000000057e+02
2.547622646372957433e+02,2.548849999999999909e+02
2.571219213886593025e+02,2.572900000000000205e+02
2.595034337315174184e+02,2.595160000000000196e+02
2.619070040965335693e+02,2.620090000000000146e+02
2.643328367893210498e+02,2.645500000000000114e+02
2.667811380078117622e+02,2.669039999999999964e+02
2.692521158597822364e+02,2.693000000000000114e+02
2.717459803805418801e+02,2.719859999999999900e+02
2.742629435507891458e+02,2.744739999999999895e+02
2.768032193146263467e+02,2.770079999999999814e+02
2.793670235977479592e+02,2.795899999999999750e+02
2.819545743257936010e+02,2.822200000000000273e+02
2.845660914428704018e+02,2.846299999999999955e+02
2.872017969302521578e+02,2.873559999999999945e+02
2.898619148252433320e+02,2.901349999999999909e+02
2.925466712402260328e+02,2.926829999999999927e+02
2.952562943818782628e+02,2.952760000000000105e+02
2.979910145705707691e+02,2.982110000000000127e+02
3.007510642599477251e+02,3.009030000000000200e+02
3.035366780566811258e+02,3.036440000000000055e+02
3.063480927404160070e+02,3.064350000000000023e+02
3.091855472838957439e+02,3.092780000000000200e+02
3.120492828732736257e+02,3.121750000000000114e+02
3.149395429286173567e+02,3.151259999999999764e+02
3.178565731245956272e+02,3.181340000000000146e+02
3.208006214113640340e+02,3.208559999999999945e+02
3.237719380356398915e+02,3.239739999999999895e+02
3.267707755619721297e+02,3.267970000000000255e+02
3.297973888942130429e+02,3.300330000000000155e+02
3.328520352971807483e+02,3.329630000000000223e+02
3.359349744185306577e+02,3.359460000000000264e+02
3.390464683108243094e+02,3.393670000000000186e+02
3.421867814538027233e+02,3.424660000000000082e+02
3.453561807768712129e+02,3.456220000000000141e+02
3.485549356817838884e+02,3.488369999999999891e+02
3.517833180655465526e+02,3.521129999999999995e+02
3.550416023435272450e+02,3.554499999999999886e+02
3.583300654727799497e+02,3.584230000000000018e+02
3.616489869755903896e+02,3.618820000000000050e+02
3.649986489632304938e+02,3.654080000000000155e+02
3.683793361599422269e+02,3.685500000000000114e+02
3.717913359271377089e+02,3.722080000000000268e+02
3.752349382878239794e+02,3.754689999999999941e+02
3.787104359512591145e+02,3.787880000000000109e+02
3.822181243378276463e+02,3.826530000000000200e+02
3.857583016041555766e+02,3.861000000000000227e+02
3.893312686684527080e+02,3.896100000000000136e+02
3.929373292360889423e+02,3.931850000000000023e+02
3.965767898254143233e+02,3.968249999999999886e+02
4.002499597938074771e+02,4.005339999999999918e+02
4.039571513639757541e+02,4.043129999999999882e+02
4.076986796504928634e+02,4.081630000000000109e+02
4.114748626865823553e+02,4.115230000000000246e+02
4.152860214511550225e+02,4.155120000000000005e+02
4.191324798960866360e+02,4.195799999999999841e+02
4.230145649737589792e+02,4.231309999999999718e+02
4.269326066648491746e+02,4.273500000000000227e+02
4.308869380063765107e+02,4.310339999999999918e+02
4.348778951200160350e+02,4.354139999999999873e+02
4.389058172406627705e+02,4.392389999999999759e+02
4.429710467452719058e+02,4.431309999999999718e+02
4.470739291819593859e+02,4.470939999999999941e+02
4.512148132993718832e+02,4.518070000000000164e+02
4.553940510763360408e+02,4.559270000000000209e+02
4.596119977517702750e+02,4.601229999999999905e+02
4.638690118548855708e+02,4.643960000000000150e+02
4.681654552356589534e+02,4.687500000000000000e+02
4.725016930955890757e+02,4.731859999999999786e+02
4.768780940187441502e+02,4.769479999999999791e+02
4.812950300030848894e+02,4.815409999999999968e+02
4.857528764920901381e+02,4.862239999999999895e+02
4.902520124066680296e+02,4.909979999999999905e+02
4.947928201773623869e+02,4.950489999999999782e+02
4.993756857768653958e+02,5.000000000000000000e+02
5.040009987528184752e+02,5.042019999999999982e+02
5.086691522609297067e+02,5.093380000000000223e+02
5.133805430983904898e+02,5.136989999999999554e+02
5.181355717376012535e+02,5.190309999999999491e+02
5.229346423602185041e+02,5.235599999999999454e+02
5.277781628915021201e+02,5.281689999999999827e+02
5.326665450349962612e+02,5.328600000000000136e+02
5.376002043075216079e+02,5.376340000000000146e+02
5.425795600744929743e+02,5.434779999999999518e+02
5.476050355855716134e+02,5.484460000000000264e+02
5.526770580106340276e+02,5.535059999999999718e+02
5.577960584760879783e+02,5.586589999999999918e+02
5.629624721015163686e+02,5.639099999999999682e+02
5.681767380366603675e+02,5.681820000000000164e+02
5.734392994987540533e+02,5.736140000000000327e+02
5.787506038101901140e+02,5.791509999999999536e+02
5.841111024365491176e+02,5.847949999999999591e+02
5.895212510249717752e+02,5.905510000000000446e+02
5.949815094428881821e+02,5.952380000000000564e+02
6.004923418171099456e+02,6.012019999999999982e+02
6.060542165732792910e+02,6.060610000000000355e+02
6.116676064756863980e+02,6.122450000000000045e+02
6.173329886674549698e+02,6.185570000000000164e+02
6.230508447110977386e+02,6.237010000000000218e+02
6.288216606294530493e+02,6.289310000000000400e+02
6.346459269469953597e+02,6.355929999999999609e+02
6.405241387315301154e+02,6.410259999999999536e+02
6.464567956362761834e+02,6.465520000000000209e+02
6.524444019423340251e+02,6.535950000000000273e+02
6.584874666015538196e+02,6.593410000000000082e+02
6.645865032797944423e+02,6.651879999999999882e+02
6.707420304005858043e+02,6.711409999999999627e+02
6.769545711891967130e+02,6.772010000000000218e+02
6.832246537171057525e+02,6.833709999999999809e+02
6.895528109468929188e+02,6.896549999999999727e+02
6.959395807775383673e+02,6.960560000000000400e+02
7.023855060901456682e+02,7.025760000000000218e+02
7.088911347940871792e+02,7.092200000000000273e+02
7.154570198735747226e+02,7.159900000000000091e+02
7.220837194346676142e+02,7.228920000000000528e+02
7.287717967527089513e+02,7.299270000000000209e+02
7.355218203202061886e+02,7.371009999999999991e+02
7.423343638951535013e+02,7.425739999999999554e+02
7.492100065497986634e+02,7.500000000000000000e+02
7.561493327198699035e+02,7.575760000000000218e+02
7.631529322542497766e+02,7.633590000000000373e+02
7.702214004651139021e+02,7.712079999999999700e+02
7.773553381785336569e+02,7.792210000000000036e+02
