# Tiempo [s], Voltage [V], Corriente [A]
#  Vpos=5, Vneg=5, stepPos=0.2, stepNeg=0.2, rev=0, hslV=0.3, hslF=0, cycles=1, T=0.25, pw=0.025, limitI=0.0005, rangeI=1e-08, limitV=0.5, rangeV=20, nlpc=0.1
0.000000000000000000e+00,1.999809999999999921e-01,4.500559999999999770e-08
2.002800000000000136e-01,4.000170000000000115e-01,7.413039999999999787e-08
4.528150000000000230e-01,6.000910000000000410e-01,2.858409999999999984e-07
7.002800000000000136e-01,8.000680000000000014e-01,1.905350000000000051e-07
9.502800000000000136e-01,1.000129999999999963e+00,2.931969999999999751e-07
1.200280000000000014e+00,1.200090000000000101e+00,3.613649999999999804e-07
1.450280000000000014e+00,1.400109999999999966e+00,4.195570000000000028e-07
1.700280000000000014e+00,1.600090000000000012e+00,4.931430000000000107e-07
1.950280000000000014e+00,1.800079999999999902e+00,6.295640000000000383e-07
2.200279999999999792e+00,2.000020000000000131e+00,7.930809999999999797e-07
2.450279999999999792e+00,2.200559999999999850e+00,9.677099999999999217e-07
2.702910000000000146e+00,2.400560000000000027e+00,3.107860000000000090e-06
2.957230000000000025e+00,2.600309999999999899e+00,1.855840000000000094e-03
3.200279999999999792e+00,2.800800000000000178e+00,1.809559999999999988e-03
3.450279999999999792e+00,3.001230000000000064e+00,2.210300000000000112e-03
3.700279999999999792e+00,3.201090000000000213e+00,3.166930000000000092e-03
3.950279999999999792e+00,3.401219999999999910e+00,3.671939999999999839e-03
4.200280000000000236e+00,3.601249999999999840e+00,4.154240000000000016e-03
4.450280000000000236e+00,3.801190000000000069e+00,4.630170000000000292e-03
4.700280000000000236e+00,4.001009999999999955e+00,5.037719999999999872e-03
4.950280000000000236e+00,4.201209999999999667e+00,5.480959999999999999e-03
5.200280000000000236e+00,4.401189999999999714e+00,5.784740000000000021e-03
5.450280000000000236e+00,4.601409999999999556e+00,6.294779999999999820e-03
5.700280000000000236e+00,4.801350000000000229e+00,6.699509999999999667e-03
5.950280000000000236e+00,5.001730000000000231e+00,7.209580000000000155e-03
6.200280000000000236e+00,4.801330000000000098e+00,6.923679999999999765e-03
6.450280000000000236e+00,4.601490000000000080e+00,6.650360000000000125e-03
6.700280000000000236e+00,4.401430000000000398e+00,6.351790000000000387e-03
6.950280000000000236e+00,4.201069999999999638e+00,6.034509999999999874e-03
7.200280000000000236e+00,4.001219999999999999e+00,5.702340000000000186e-03
7.450280000000000236e+00,3.800959999999999894e+00,5.366550000000000313e-03
7.700280000000000236e+00,3.601490000000000080e+00,5.039519999999999590e-03
7.950280000000000236e+00,3.401050000000000129e+00,4.711719999999999971e-03
8.200279999999999347e+00,3.201159999999999783e+00,4.386900000000000001e-03
8.450279999999999347e+00,3.001030000000000086e+00,4.064980000000000156e-03
8.700279999999999347e+00,2.800899999999999945e+00,3.743929999999999914e-03
8.950279999999999347e+00,2.600690000000000168e+00,3.425089999999999992e-03
9.200279999999999347e+00,2.400580000000000158e+00,3.109030000000000040e-03
9.450279999999999347e+00,2.200439999999999952e+00,2.796020000000000189e-03
9.700279999999999347e+00,2.000030000000000197e+00,2.487300000000000014e-03
9.950279999999999347e+00,1.800059999999999993e+00,2.184329999999999952e-03
1.020030000000000037e+01,1.600079999999999947e+00,1.887709999999999909e-03
1.045030000000000037e+01,1.400090000000000057e+00,1.599359999999999974e-03
1.070030000000000037e+01,1.200139999999999985e+00,1.319709999999999980e-03
1.095030000000000037e+01,1.000099999999999989e+00,1.053249999999999933e-03
1.120260000000000034e+01,8.001270000000000326e-01,7.973669999999999976e-04
1.145030000000000037e+01,6.000520000000000298e-01,5.614759999999999890e-04
1.170030000000000037e+01,4.000929999999999764e-01,3.471799999999999930e-04
1.195030000000000037e+01,1.999759999999999871e-01,1.598559999999999955e-04
1.224750000000000050e+01,-1.866819999999999856e-05,-6.523190000000000590e-08
1.245030000000000037e+01,-1.480579999999999977e-05,-5.161209999999999799e-08
1.270989999999999931e+01,-2.000349999999999906e-01,-1.609640000000000127e-04
1.295030000000000037e+01,-4.001160000000000272e-01,-3.476339999999999856e-04
1.320030000000000037e+01,-6.001419999999999533e-01,-5.581479999999999558e-04
1.345030000000000037e+01,-8.001500000000000279e-01,-7.886990000000000190e-04
1.370260000000000034e+01,-1.000129999999999963e+00,-1.036449999999999958e-03
1.395030000000000037e+01,-1.200139999999999985e+00,-1.297860000000000073e-03
1.420030000000000037e+01,-1.400160000000000071e+00,-1.571469999999999942e-03
1.445030000000000037e+01,-1.600100000000000078e+00,-1.855359999999999909e-03
1.470030000000000037e+01,-1.800119999999999942e+00,-2.147809999999999997e-03
1.495030000000000037e+01,-2.000080000000000080e+00,-2.448800000000000109e-03
1.520030000000000037e+01,-2.200299999999999923e+00,-2.756390000000000055e-03
1.545030000000000037e+01,-2.400479999999999947e+00,-3.071809999999999905e-03
1.570030000000000037e+01,-2.600260000000000016e+00,-3.396730000000000149e-03
1.595030000000000037e+01,-2.800050000000000150e+00,-3.729029999999999932e-03
1.620029999999999859e+01,-3.000059999999999949e+00,-4.069500000000000201e-03
1.645029999999999859e+01,-3.200219999999999843e+00,-4.423439999999999837e-03
1.670029999999999859e+01,-3.400079999999999991e+00,-4.763319999999999707e-03
1.695029999999999859e+01,-3.600550000000000139e+00,-5.429009999999999739e-03
1.720029999999999859e+01,-3.800499999999999989e+00,-5.902659999999999678e-03
1.745029999999999859e+01,-4.000320000000000320e+00,-6.353400000000000367e-03
1.770029999999999859e+01,-4.200359999999999872e+00,-6.789569999999999980e-03
1.795029999999999859e+01,-4.400260000000000282e+00,-7.264109999999999838e-03
1.820029999999999859e+01,-4.600430000000000241e+00,-7.712280000000000177e-03
1.845029999999999859e+01,-4.800609999999999822e+00,-8.197750000000000176e-03
1.870029999999999859e+01,-5.000890000000000057e+00,-8.685729999999999146e-03
1.895029999999999859e+01,-4.800679999999999836e+00,-8.255339999999999900e-03
1.920029999999999859e+01,-4.600559999999999761e+00,-7.830699999999999467e-03
1.945029999999999859e+01,-4.400549999999999962e+00,-7.409139999999999823e-03
1.970029999999999859e+01,-4.200459999999999638e+00,-6.987690000000000394e-03
1.995029999999999859e+01,-4.000210000000000043e+00,-6.569570000000000271e-03
2.020029999999999859e+01,-3.800660000000000149e+00,-6.160210000000000165e-03
2.045029999999999859e+01,-3.600490000000000190e+00,-5.751590000000000001e-03
2.070029999999999859e+01,-3.400279999999999969e+00,-5.349790000000000101e-03
2.095029999999999859e+01,-3.200359999999999872e+00,-4.952800000000000258e-03
2.120029999999999859e+01,-3.000150000000000095e+00,-4.564160000000000265e-03
2.145029999999999859e+01,-2.799999999999999822e+00,-4.179429999999999604e-03
2.170029999999999859e+01,-2.600159999999999805e+00,-3.804549999999999859e-03
2.195029999999999859e+01,-2.400240000000000151e+00,-3.433569999999999938e-03
2.220029999999999859e+01,-2.200070000000000192e+00,-3.073150000000000187e-03
2.245029999999999859e+01,-2.000059999999999949e+00,-2.718710000000000050e-03
2.270029999999999859e+01,-1.800110000000000099e+00,-2.376150000000000050e-03
2.295029999999999859e+01,-1.600100000000000078e+00,-2.043409999999999845e-03
2.320029999999999859e+01,-1.400139999999999940e+00,-1.721579999999999899e-03
2.345029999999999859e+01,-1.200180000000000025e+00,-1.415019999999999906e-03
2.370029999999999859e+01,-1.000140000000000029e+00,-1.121409999999999985e-03
2.395260000000000034e+01,-8.001589999999999536e-01,-8.478910000000000309e-04
2.420029999999999859e+01,-6.001149999999999540e-01,-5.946690000000000352e-04
2.445029999999999859e+01,-4.001060000000000172e-01,-3.664079999999999789e-04
2.470029999999999859e+01,-2.000339999999999896e-01,-1.675410000000000007e-04
