# Frecuencia [Hz], Z [Ohm], Fase [°]
2.000000000000000000e+01,2.482450000000000000e+04,-6.990019999999999811e+01
2.037349999999999994e+01,2.452370000000000073e+04,-6.992199999999999704e+01
2.075260000000000105e+01,2.422470000000000073e+04,-6.995140000000000668e+01
2.114020000000000010e+01,2.392890000000000146e+04,-6.998309999999999320e+01
2.153320000000000078e+01,2.363790000000000146e+04,-7.002020000000000266e+01
2.193459999999999965e+01,2.334829999999999927e+04,-7.006770000000000209e+01
2.234299999999999997e+01,2.306270000000000073e+04,-7.011490000000000578e+01
2.275829999999999842e+01,2.277990000000000146e+04,-7.017379999999999995e+01
2.318209999999999837e+01,2.249979999999999927e+04,-7.023640000000000327e+01
2.361459999999999937e+01,2.222040000000000146e+04,-7.030339999999999634e+01
2.405580000000000140e+01,2.194340000000000146e+04,-7.037699999999999534e+01
2.450379999999999825e+01,2.167070000000000073e+04,-7.045529999999999404e+01
2.496049999999999969e+01,2.139979999999999927e+04,-7.053950000000000387e+01
2.542589999999999861e+01,2.113100000000000000e+04,-7.062820000000000675e+01
2.589780000000000015e+01,2.086629999999999927e+04,-7.072259999999999991e+01
2.638060000000000116e+01,2.060209999999999854e+04,-7.082219999999999516e+01
2.687209999999999965e+01,2.034029999999999927e+04,-7.092529999999999291e+01
2.737229999999999919e+01,2.008029999999999927e+04,-7.103329999999999700e+01
2.788360000000000127e+01,1.982200000000000000e+04,-7.114520000000000266e+01
2.840099999999999980e+01,1.956720000000000073e+04,-7.126560000000000628e+01
2.893240000000000123e+01,1.931100000000000000e+04,-7.138880000000000337e+01
2.946950000000000003e+01,1.906059999999999854e+04,-7.151210000000000377e+01
3.001800000000000068e+01,1.881159999999999854e+04,-7.164249999999999829e+01
3.057789999999999964e+01,1.856370000000000073e+04,-7.177750000000000341e+01
3.114939999999999998e+01,1.831670000000000073e+04,-7.191400000000000148e+01
3.172919999999999874e+01,1.807140000000000146e+04,-7.205440000000000111e+01
3.232059999999999889e+01,1.782920000000000073e+04,-7.219589999999999463e+01
3.292000000000000171e+01,1.759109999999999854e+04,-7.234619999999999607e+01
3.353450000000000131e+01,1.735020000000000073e+04,-7.249909999999999854e+01
3.416080000000000183e+01,1.711259999999999854e+04,-7.265049999999999386e+01
3.479869999999999663e+01,1.687920000000000073e+04,-7.280079999999999529e+01
3.544420000000000215e+01,1.664650000000000000e+04,-7.295720000000000027e+01
3.610540000000000305e+01,1.641420000000000073e+04,-7.311969999999999459e+01
3.677819999999999823e+01,1.618489999999999964e+04,-7.328329999999999700e+01
3.746249999999999858e+01,1.595789999999999964e+04,-7.344780000000000086e+01
3.815820000000000078e+01,1.573370000000000073e+04,-7.361360000000000525e+01
3.887019999999999698e+01,1.550910000000000036e+04,-7.378060000000000684e+01
3.959349999999999881e+01,1.528700000000000000e+04,-7.395319999999999538e+01
4.033339999999999748e+01,1.506520000000000073e+04,-7.411820000000000164e+01
4.108460000000000178e+01,1.484870000000000073e+04,-7.429370000000000118e+01
4.185269999999999868e+01,1.463139999999999964e+04,-7.446760000000000446e+01
4.263179999999999836e+01,1.441620000000000073e+04,-7.463559999999999661e+01
4.342159999999999798e+01,1.420539999999999964e+04,-7.480910000000000082e+01
4.423469999999999658e+01,1.399460000000000036e+04,-7.498699999999999477e+01
4.505859999999999843e+01,1.378610000000000036e+04,-7.516289999999999338e+01
4.589959999999999951e+01,1.357910000000000036e+04,-7.533830000000000382e+01
4.675079999999999814e+01,1.337510000000000036e+04,-7.551139999999999475e+01
4.761899999999999977e+01,1.317429999999999927e+04,-7.568919999999999959e+01
4.851230000000000331e+01,1.297210000000000036e+04,-7.587009999999999366e+01
4.941530000000000200e+01,1.277560000000000036e+04,-7.603889999999999816e+01
5.033559999999999945e+01,1.257739999999999964e+04,-7.621290000000000475e+01
5.127329999999999899e+01,1.238389999999999964e+04,-7.638760000000000616e+01
5.222840000000000060e+01,1.219179999999999927e+04,-7.656369999999999720e+01
5.320089999999999719e+01,1.200239999999999964e+04,-7.674160000000000537e+01
5.419080000000000297e+01,1.181439999999999964e+04,-7.691549999999999443e+01
5.519780000000000086e+01,1.162960000000000036e+04,-7.708389999999999986e+01
5.623239999999999839e+01,1.144450000000000000e+04,-7.725780000000000314e+01
5.727380000000000138e+01,1.126410000000000036e+04,-7.742860000000000298e+01
5.834309999999999974e+01,1.108410000000000036e+04,-7.759999999999999432e+01
5.942949999999999733e+01,1.090670000000000073e+04,-7.777079999999999416e+01
6.054489999999999839e+01,1.073120000000000073e+04,-7.793909999999999627e+01
6.166499999999999915e+01,1.055950000000000000e+04,-7.810030000000000427e+01
6.281410000000000338e+01,1.038779999999999927e+04,-7.826279999999999859e+01
6.397950000000000159e+01,1.021960000000000036e+04,-7.843300000000000693e+01
6.517489999999999384e+01,1.005350000000000000e+04,-7.859369999999999834e+01
6.638639999999999475e+01,9.889690000000000509e+03,-7.874989999999999668e+01
6.762850000000000250e+01,9.725200000000000728e+03,-7.891219999999999857e+01
6.888630000000000564e+01,9.565450000000000728e+03,-7.906999999999999318e+01
7.017539999999999623e+01,9.406360000000000582e+03,-7.922570000000000334e+01
7.147960000000000491e+01,9.250760000000000218e+03,-7.938330000000000553e+01
7.281550000000000011e+01,9.096600000000000364e+03,-7.953780000000000427e+01
7.416559999999999775e+01,8.945360000000000582e+03,-7.968529999999999802e+01
7.554770000000000607e+01,8.795540000000000873e+03,-7.983740000000000236e+01
7.696250000000000568e+01,8.647350000000000364e+03,-7.998359999999999559e+01
7.839039999999999964e+01,8.503040000000000873e+03,-8.012919999999999732e+01
7.985089999999999577e+01,8.359219999999999345e+03,-8.027309999999999945e+01
8.134489999999999554e+01,8.217340000000000146e+03,-8.041710000000000491e+01
8.284999999999999432e+01,8.078630000000000109e+03,-8.055360000000000298e+01
8.438819999999999766e+01,7.941670000000000073e+03,-8.069350000000000023e+01
8.598449999999999704e+01,7.804479999999999563e+03,-8.083119999999999550e+01
8.756570000000000675e+01,7.672439999999999600e+03,-8.096210000000000662e+01
8.920610000000000639e+01,7.540739999999999782e+03,-8.109610000000000696e+01
9.085399999999999920e+01,7.412579999999999927e+03,-8.122570000000000334e+01
9.256399999999999295e+01,7.283880000000000109e+03,-8.135450000000000159e+01
9.428029999999999688e+01,7.158590000000000146e+03,-8.148059999999999548e+01
9.603069999999999595e+01,7.035359999999999673e+03,-8.160330000000000439e+01
9.784739999999999327e+01,6.911939999999999600e+03,-8.172870000000000346e+01
9.966779999999999973e+01,6.792520000000000437e+03,-8.184739999999999327e+01
1.015229999999999961e+02,6.674979999999999563e+03,-8.196959999999999980e+01
1.034129999999999967e+02,6.558060000000000400e+03,-8.208469999999999800e+01
1.053370000000000033e+02,6.444970000000000255e+03,-8.219689999999999941e+01
1.072960000000000065e+02,6.332079999999999927e+03,-8.231180000000000518e+01
1.092900000000000063e+02,6.221850000000000364e+03,-8.242170000000000130e+01
1.113169999999999931e+02,6.113180000000000291e+03,-8.253000000000000114e+01
1.134219999999999970e+02,6.004810000000000400e+03,-8.263909999999999911e+01
1.155180000000000007e+02,5.900159999999999854e+03,-8.274309999999999832e+01
1.176470000000000056e+02,5.797170000000000073e+03,-8.284329999999999927e+01
1.198559999999999945e+02,5.694609999999999673e+03,-8.294299999999999784e+01
1.220999999999999943e+02,5.594109999999999673e+03,-8.305070000000000618e+01
1.243780000000000001e+02,5.494640000000000327e+03,-8.314360000000000639e+01
1.266889999999999930e+02,5.398119999999999891e+03,-8.324030000000000484e+01
1.290320000000000107e+02,5.303039999999999964e+03,-8.333540000000000703e+01
1.314639999999999986e+02,5.208180000000000291e+03,-8.342799999999999727e+01
1.339290000000000020e+02,5.115359999999999673e+03,-8.351879999999999882e+01
1.363640000000000043e+02,5.026630000000000109e+03,-8.360639999999999361e+01
1.389530000000000030e+02,4.935500000000000000e+03,-8.369320000000000448e+01
1.415089999999999861e+02,4.848539999999999964e+03,-8.377379999999999427e+01
1.441610000000000014e+02,4.762210000000000036e+03,-8.385490000000000066e+01
1.468429999999999893e+02,4.677399999999999636e+03,-8.393890000000000384e+01
1.495509999999999877e+02,4.594810000000000400e+03,-8.401829999999999643e+01
1.523619999999999948e+02,4.512130000000000109e+03,-8.409539999999999793e+01
1.551990000000000123e+02,4.431189999999999600e+03,-8.417529999999999291e+01
1.580610000000000070e+02,4.353289999999999964e+03,-8.424569999999999936e+01
1.610310000000000059e+02,4.274770000000000437e+03,-8.432059999999999889e+01
1.640240000000000009e+02,4.198060000000000400e+03,-8.439029999999999632e+01
1.671310000000000002e+02,4.121960000000000036e+03,-8.446049999999999613e+01
1.702609999999999957e+02,4.047599999999999909e+03,-8.452819999999999823e+01
1.734099999999999966e+02,3.975329999999999927e+03,-8.459659999999999513e+01
1.765740000000000123e+02,3.905340000000000146e+03,-8.465689999999999316e+01
1.799639999999999986e+02,3.833210000000000036e+03,-8.472140000000000271e+01
1.832620000000000005e+02,3.765289999999999964e+03,-8.478329999999999700e+01
1.866829999999999927e+02,3.697530000000000200e+03,-8.484329999999999927e+01
1.901140000000000043e+02,3.631849999999999909e+03,-8.490109999999999957e+01
1.936730000000000018e+02,3.566329999999999927e+03,-8.495239999999999725e+01
1.973679999999999950e+02,3.500599999999999909e+03,-8.501300000000000523e+01
2.009379999999999882e+02,3.439210000000000036e+03,-8.506440000000000623e+01
2.047779999999999916e+02,3.375690000000000055e+03,-8.511700000000000443e+01
2.086229999999999905e+02,3.314380000000000109e+03,-8.516849999999999454e+01
2.124650000000000034e+02,3.255250000000000000e+03,-8.521399999999999864e+01
2.164499999999999886e+02,3.196050000000000182e+03,-8.526850000000000307e+01
2.204259999999999877e+02,3.139090000000000146e+03,-8.531159999999999854e+01
2.245509999999999877e+02,3.082230000000000018e+03,-8.535580000000000211e+01
2.286589999999999918e+02,3.027559999999999945e+03,-8.539690000000000225e+01
2.329190000000000111e+02,2.972650000000000091e+03,-8.541620000000000346e+01
2.373420000000000130e+02,2.917949999999999818e+03,-8.545680000000000121e+01
2.417410000000000139e+02,2.865460000000000036e+03,-8.549880000000000280e+01
2.463050000000000068e+02,2.812909999999999854e+03,-8.553619999999999379e+01
2.508360000000000127e+02,2.762639999999999873e+03,-8.556929999999999836e+01
2.555370000000000061e+02,2.712329999999999927e+03,-8.560179999999999723e+01
2.601909999999999741e+02,2.664369999999999891e+03,-8.563479999999999848e+01
2.650179999999999723e+02,2.616260000000000218e+03,-8.566729999999999734e+01
2.700269999999999868e+02,2.568159999999999854e+03,-8.569899999999999807e+01
2.752289999999999850e+02,2.520070000000000164e+03,-8.572870000000000346e+01
2.801120000000000232e+02,2.476579999999999927e+03,-8.575419999999999732e+01
2.854420000000000073e+02,2.430739999999999782e+03,-8.578060000000000684e+01
2.906979999999999791e+02,2.387199999999999818e+03,-8.580549999999999500e+01
2.961499999999999773e+02,2.343489999999999782e+03,-8.582699999999999818e+01
3.018109999999999786e+02,2.300000000000000000e+03,-8.585169999999999391e+01
3.073770000000000095e+02,2.258710000000000036e+03,-8.587250000000000227e+01
3.131519999999999868e+02,2.217329999999999927e+03,-8.589419999999999789e+01
3.188100000000000023e+02,2.178289999999999964e+03,-8.590970000000000084e+01
3.250269999999999868e+02,2.137019999999999982e+03,-8.592789999999999395e+01
3.307610000000000241e+02,2.100159999999999854e+03,-8.594100000000000250e+01
3.370790000000000077e+02,2.061079999999999927e+03,-8.595740000000000691e+01
3.432490000000000236e+02,2.024259999999999991e+03,-8.596989999999999554e+01
3.496499999999999773e+02,1.987509999999999991e+03,-8.598029999999999973e+01
3.562950000000000159e+02,1.950690000000000055e+03,-8.598969999999999914e+01
3.627570000000000050e+02,1.916230000000000018e+03,-8.599880000000000280e+01
3.694580000000000268e+02,1.881670000000000073e+03,-8.600740000000000407e+01
3.764119999999999777e+02,1.847099999999999909e+03,-8.601260000000000616e+01
3.836320000000000050e+02,1.812609999999999900e+03,-8.601690000000000680e+01
3.906250000000000000e+02,1.780329999999999927e+03,-8.602259999999999707e+01
3.978779999999999859e+02,1.748130000000000109e+03,-8.602609999999999957e+01
4.054049999999999727e+02,1.715869999999999891e+03,-8.602469999999999573e+01
4.132230000000000132e+02,1.683480000000000018e+03,-8.602339999999999520e+01
4.207570000000000050e+02,1.653569999999999936e+03,-8.602280000000000371e+01
4.285710000000000264e+02,1.623630000000000109e+03,-8.601990000000000691e+01
4.366809999999999832e+02,1.593609999999999900e+03,-8.601579999999999870e+01
4.444440000000000168e+02,1.565930000000000064e+03,-8.601049999999999329e+01
4.531720000000000255e+02,1.535990000000000009e+03,-8.600350000000000250e+01
4.615380000000000109e+02,1.508319999999999936e+03,-8.599630000000000507e+01
4.702189999999999941e+02,1.480609999999999900e+03,-8.598629999999999995e+01
4.784689999999999941e+02,1.455240000000000009e+03,-8.597509999999999764e+01
4.878050000000000068e+02,1.427529999999999973e+03,-8.596290000000000475e+01
4.966890000000000214e+02,1.402150000000000091e+03,-8.594729999999999848e+01
5.059019999999999868e+02,1.376720000000000027e+03,-8.593429999999999325e+01
5.154640000000000555e+02,1.351369999999999891e+03,-8.591889999999999361e+01
5.253940000000000055e+02,1.325980000000000018e+03,-8.589979999999999905e+01
5.347590000000000146e+02,1.302869999999999891e+03,-8.588150000000000261e+01
5.444650000000000318e+02,1.279769999999999982e+03,-8.586239999999999384e+01
5.545289999999999964e+02,1.256690000000000055e+03,-8.584159999999999968e+01
5.649719999999999800e+02,1.233609999999999900e+03,-8.581789999999999452e+01
5.758160000000000309e+02,1.210509999999999991e+03,-8.579259999999999309e+01
5.870839999999999463e+02,1.187410000000000082e+03,-8.576609999999999445e+01
5.976100000000000136e+02,1.166640000000000100e+03,-8.573930000000000007e+01
6.085190000000000055e+02,1.145859999999999900e+03,-8.571179999999999666e+01
6.198350000000000364e+02,1.125039999999999964e+03,-8.568200000000000216e+01
6.315789999999999509e+02,1.104230000000000018e+03,-8.565009999999999479e+01
6.437770000000000437e+02,1.083430000000000064e+03,-8.561660000000000537e+01
6.550220000000000482e+02,1.064960000000000036e+03,-8.558389999999999986e+01
6.681509999999999536e+02,1.044170000000000073e+03,-8.554720000000000368e+01
6.802720000000000482e+02,1.025690000000000055e+03,-8.551009999999999422e+01
6.928410000000000082e+02,1.007169999999999959e+03,-8.547230000000000416e+01
7.058819999999999482e+02,9.887140000000000555e+02,-8.543250000000000455e+01
7.194239999999999782e+02,9.702179999999999609e+02,-8.538930000000000575e+01
7.317069999999999936e+02,9.540270000000000437e+02,-8.535049999999999670e+01
7.462690000000000055e+02,9.356380000000000337e+02,-8.530480000000000018e+01
7.594940000000000282e+02,9.194539999999999509e+02,-8.526139999999999475e+01
7.731960000000000264e+02,9.032920000000000300e+02,-8.521500000000000341e+01
7.894740000000000464e+02,8.847910000000000537e+02,-8.515980000000000416e+01
8.021390000000000100e+02,8.709249999999999545e+02,-8.511570000000000391e+01
8.174389999999999645e+02,8.547440000000000282e+02,-8.506289999999999907e+01
8.333329999999999700e+02,8.385750000000000455e+02,-8.500639999999999930e+01
8.498579999999999472e+02,8.223830000000000382e+02,-8.494759999999999422e+01
8.645529999999999973e+02,8.085199999999999818e+02,-8.489490000000000691e+01
8.797649999999999864e+02,7.946580000000000155e+02,-8.483899999999999864e+01
8.982039999999999509e+02,7.784840000000000373e+02,-8.477179999999999893e+01
9.146340000000000146e+02,7.646109999999999900e+02,-8.470990000000000464e+01
9.316770000000000209e+02,7.507419999999999618e+02,-8.464589999999999748e+01
9.493669999999999618e+02,7.368759999999999764e+02,-8.457909999999999684e+01
9.677419999999999618e+02,7.230170000000000528e+02,-8.450920000000000698e+01
9.836069999999999709e+02,7.114560000000000173e+02,-8.444819999999999993e+01
1.003340000000000032e+03,6.975950000000000273e+02,-8.437239999999999895e+01
1.020409999999999968e+03,6.860460000000000491e+02,-8.430580000000000496e+01
1.041670000000000073e+03,6.721900000000000546e+02,-8.422289999999999566e+01
1.060069999999999936e+03,6.606349999999999909e+02,-8.415099999999999625e+01
1.079140000000000100e+03,6.490839999999999463e+02,-8.407519999999999527e+01
1.098900000000000091e+03,6.375389999999999873e+02,-8.399689999999999657e+01
1.119400000000000091e+03,6.259850000000000136e+02,-8.390779999999999461e+01
1.140680000000000064e+03,6.144329999999999927e+02,-8.382319999999999993e+01
1.162789999999999964e+03,6.028899999999999864e+02,-8.373359999999999559e+01
1.185769999999999982e+03,5.913469999999999800e+02,-8.364119999999999777e+01
1.204819999999999936e+03,5.821200000000000045e+02,-8.356359999999999388e+01
1.229509999999999991e+03,5.705779999999999745e+02,-8.346290000000000475e+01
1.250000000000000000e+03,5.613509999999999991e+02,-8.337850000000000250e+01
1.276599999999999909e+03,5.498120000000000118e+02,-8.326940000000000452e+01
1.298700000000000045e+03,5.405839999999999463e+02,-8.317770000000000152e+01
1.321589999999999918e+03,5.313600000000000136e+02,-8.308329999999999416e+01
1.345289999999999964e+03,5.221359999999999673e+02,-8.298529999999999518e+01
1.376150000000000091e+03,5.106080000000000041e+02,-8.285620000000000118e+01
1.401869999999999891e+03,5.013870000000000005e+02,-8.274869999999999948e+01
1.421799999999999955e+03,4.944719999999999800e+02,-8.266490000000000293e+01
1.449279999999999973e+03,4.852540000000000191e+02,-8.254879999999999995e+01
1.477829999999999927e+03,4.760369999999999777e+02,-8.242889999999999873e+01
1.507539999999999964e+03,4.668249999999999886e+02,-8.230329999999999302e+01
1.530609999999999900e+03,4.599150000000000205e+02,-8.220529999999999404e+01
1.562500000000000000e+03,4.507019999999999982e+02,-8.207030000000000314e+01
1.595740000000000009e+03,4.414990000000000236e+02,-8.192860000000000298e+01
1.621619999999999891e+03,4.345960000000000036e+02,-8.181789999999999452e+01
1.648349999999999909e+03,4.276949999999999932e+02,-8.170340000000000202e+01
1.685390000000000100e+03,4.184920000000000186e+02,-8.154500000000000171e+01
1.714289999999999964e+03,4.115930000000000177e+02,-8.142130000000000223e+01
1.744190000000000055e+03,4.046979999999999791e+02,-8.129269999999999641e+01
1.775150000000000091e+03,3.978039999999999736e+02,-8.115989999999999327e+01
1.807230000000000018e+03,3.909130000000000109e+02,-8.102190000000000225e+01
1.851849999999999909e+03,3.817259999999999991e+02,-8.083010000000000161e+01
1.875000000000000000e+03,3.771370000000000005e+02,-8.073009999999999309e+01
1.910829999999999927e+03,3.702520000000000095e+02,-8.057569999999999766e+01
1.948049999999999955e+03,3.633690000000000282e+02,-8.041509999999999536e+01
1.986759999999999991e+03,3.564909999999999854e+02,-8.024750000000000227e+01
2.027029999999999973e+03,3.496170000000000186e+02,-8.007380000000000564e+01
2.068969999999999800e+03,3.427450000000000045e+02,-7.989279999999999404e+01
2.097900000000000091e+03,3.381639999999999873e+02,-7.976739999999999498e+01
2.142860000000000127e+03,3.312989999999999782e+02,-7.957340000000000657e+01
2.173909999999999854e+03,3.267230000000000132e+02,-7.943909999999999627e+01
2.222219999999999800e+03,3.198639999999999759e+02,-7.923009999999999309e+01
2.255639999999999873e+03,3.152950000000000159e+02,-7.908549999999999613e+01
2.307690000000000055e+03,3.084409999999999741e+02,-7.886079999999999757e+01
2.343750000000000000e+03,3.038779999999999859e+02,-7.870459999999999923e+01
2.400000000000000000e+03,2.970439999999999827e+02,-7.846030000000000371e+01
2.439019999999999982e+03,2.924850000000000136e+02,-7.829189999999999827e+01
2.479340000000000146e+03,2.879279999999999973e+02,-7.811809999999999832e+01
