# Capacitor de 0.47 nF en serie con resistencia de 29 kOhm. Frecuencia fija en 1 kHz 
#  Z [Ohm], Fase [°]
2.000000000000000000e+01,3.314950000000000000e+04,-3.206230000000000047e+01
2.037349999999999994e+01,3.297930000000000291e+04,-3.158840000000000003e+01
2.075260000000000105e+01,3.281469999999999709e+04,-3.111919999999999931e+01
2.114020000000000010e+01,3.265459999999999854e+04,-3.065190000000000126e+01
2.153320000000000078e+01,3.250040000000000146e+04,-3.019290000000000163e+01
2.193459999999999965e+01,3.235129999999999927e+04,-2.973209999999999908e+01
2.234299999999999997e+01,3.220659999999999854e+04,-2.928209999999999980e+01
2.275829999999999842e+01,3.206650000000000000e+04,-2.883259999999999934e+01
2.318209999999999837e+01,3.192959999999999854e+04,-2.839020000000000010e+01
2.361459999999999937e+01,3.179829999999999927e+04,-2.794969999999999999e+01
2.405580000000000140e+01,3.167100000000000000e+04,-2.751330000000000098e+01
2.450379999999999825e+01,3.154790000000000146e+04,-2.708249999999999957e+01
2.496049999999999969e+01,3.142870000000000073e+04,-2.665719999999999956e+01
2.542589999999999861e+01,3.131350000000000000e+04,-2.623549999999999827e+01
2.589780000000000015e+01,3.120250000000000000e+04,-2.581970000000000098e+01
2.638060000000000116e+01,3.109470000000000073e+04,-2.540909999999999869e+01
2.687209999999999965e+01,3.099020000000000073e+04,-2.500179999999999936e+01
2.737229999999999919e+01,3.088979999999999927e+04,-2.460099999999999909e+01
2.788360000000000127e+01,3.079250000000000000e+04,-2.420410000000000039e+01
2.840099999999999980e+01,3.069729999999999927e+04,-2.380999999999999872e+01
2.893240000000000123e+01,3.060600000000000000e+04,-2.342510000000000048e+01
2.946950000000000003e+01,3.051829999999999927e+04,-2.304100000000000037e+01
3.001800000000000068e+01,3.043429999999999927e+04,-2.266410000000000124e+01
3.057789999999999964e+01,3.035190000000000146e+04,-2.228940000000000055e+01
3.114939999999999998e+01,3.027290000000000146e+04,-2.191890000000000072e+01
3.172919999999999874e+01,3.019559999999999854e+04,-2.155470000000000041e+01
3.232059999999999889e+01,3.011959999999999854e+04,-2.119729999999999848e+01
3.292000000000000171e+01,3.005070000000000073e+04,-2.083879999999999910e+01
3.353450000000000131e+01,2.997879999999999927e+04,-2.050199999999999889e+01
3.416080000000000183e+01,2.991170000000000073e+04,-2.014789999999999992e+01
3.479869999999999663e+01,2.985040000000000146e+04,-1.981159999999999854e+01
3.544420000000000215e+01,2.978570000000000073e+04,-1.947500000000000142e+01
3.610540000000000305e+01,2.972650000000000000e+04,-1.914870000000000161e+01
3.677819999999999823e+01,2.966840000000000146e+04,-1.882019999999999982e+01
3.746249999999999858e+01,2.961259999999999854e+04,-1.850090000000000146e+01
3.815820000000000078e+01,2.956000000000000000e+04,-1.819150000000000134e+01
3.887019999999999698e+01,2.950559999999999854e+04,-1.788459999999999894e+01
3.959349999999999881e+01,2.945120000000000073e+04,-1.756990000000000052e+01
4.033339999999999748e+01,2.940729999999999927e+04,-1.726030000000000086e+01
4.108460000000000178e+01,2.935770000000000073e+04,-1.697810000000000130e+01
4.185269999999999868e+01,2.931620000000000073e+04,-1.667220000000000013e+01
4.263179999999999836e+01,2.927009999999999854e+04,-1.638690000000000069e+01
4.342159999999999798e+01,2.922859999999999854e+04,-1.610620000000000118e+01
4.423469999999999658e+01,2.918659999999999854e+04,-1.582900000000000063e+01
4.505859999999999843e+01,2.914690000000000146e+04,-1.555530000000000079e+01
4.589959999999999951e+01,2.910900000000000000e+04,-1.528400000000000070e+01
4.675079999999999814e+01,2.907140000000000146e+04,-1.502410000000000068e+01
4.761899999999999977e+01,2.903509999999999854e+04,-1.475820000000000043e+01
4.851230000000000331e+01,2.900250000000000000e+04,-1.450660000000000061e+01
4.941530000000000200e+01,2.896790000000000146e+04,-1.424109999999999943e+01
5.033559999999999945e+01,2.893500000000000000e+04,-1.399360000000000070e+01
5.127329999999999899e+01,2.891300000000000000e+04,-1.375319999999999965e+01
5.222840000000000060e+01,2.888270000000000073e+04,-1.351360000000000028e+01
5.320089999999999719e+01,2.884559999999999854e+04,-1.326379999999999981e+01
5.419080000000000297e+01,2.881879999999999927e+04,-1.303020000000000067e+01
5.519780000000000086e+01,2.879679999999999927e+04,-1.281010000000000026e+01
5.623239999999999839e+01,2.876970000000000073e+04,-1.257799999999999940e+01
5.727380000000000138e+01,2.874390000000000146e+04,-1.235590000000000011e+01
5.834309999999999974e+01,2.871929999999999927e+04,-1.213700000000000045e+01
5.942949999999999733e+01,2.869790000000000146e+04,-1.192309999999999981e+01
6.054489999999999839e+01,2.867100000000000000e+04,-1.170139999999999958e+01
6.166499999999999915e+01,2.865079999999999927e+04,-1.149579999999999913e+01
6.281410000000000338e+01,2.862720000000000073e+04,-1.129010000000000069e+01
6.397950000000000159e+01,2.861540000000000146e+04,-1.110219999999999985e+01
6.517489999999999384e+01,2.858770000000000073e+04,-1.089780000000000015e+01
6.638639999999999475e+01,2.856959999999999854e+04,-1.070010000000000083e+01
6.762850000000000250e+01,2.855229999999999927e+04,-1.051660000000000039e+01
6.888630000000000564e+01,2.854179999999999927e+04,-1.032620000000000005e+01
7.017539999999999623e+01,2.851959999999999854e+04,-1.013519999999999932e+01
7.147960000000000491e+01,2.850979999999999927e+04,-9.955460000000000420e+00
7.281550000000000011e+01,2.848850000000000000e+04,-9.782890000000000086e+00
7.416559999999999775e+01,2.847270000000000073e+04,-9.607100000000000861e+00
7.554770000000000607e+01,2.845959999999999854e+04,-9.432880000000000820e+00
7.696250000000000568e+01,2.844650000000000000e+04,-9.261670000000000513e+00
7.839039999999999964e+01,2.843340000000000146e+04,-9.096040000000000347e+00
7.985089999999999577e+01,2.842009999999999854e+04,-8.932349999999999568e+00
8.134489999999999554e+01,2.840750000000000000e+04,-8.771689999999999543e+00
8.284999999999999432e+01,2.839709999999999854e+04,-8.612600000000000477e+00
8.438819999999999766e+01,2.838379999999999927e+04,-8.461460000000000647e+00
8.598449999999999704e+01,2.837220000000000073e+04,-8.304040000000000532e+00
8.756570000000000675e+01,2.836509999999999854e+04,-8.152799999999999159e+00
8.920610000000000639e+01,2.835359999999999854e+04,-8.006560000000000343e+00
9.085399999999999920e+01,2.834250000000000000e+04,-7.867799999999999905e+00
9.256399999999999295e+01,2.833400000000000000e+04,-7.723410000000000331e+00
9.428029999999999688e+01,2.832620000000000073e+04,-7.579539999999999722e+00
9.603069999999999595e+01,2.831250000000000000e+04,-7.440800000000000303e+00
9.784739999999999327e+01,2.830620000000000073e+04,-7.312339999999999840e+00
9.966779999999999973e+01,2.829309999999999854e+04,-7.177439999999999820e+00
1.015229999999999961e+02,2.828929999999999927e+04,-7.043140000000000178e+00
1.034129999999999967e+02,2.827659999999999854e+04,-6.920910000000000117e+00
1.053370000000000033e+02,2.827050000000000000e+04,-6.789539999999999687e+00
1.072960000000000065e+02,2.826809999999999854e+04,-6.671299999999999564e+00
1.092900000000000063e+02,2.826029999999999927e+04,-6.549979999999999691e+00
1.113169999999999931e+02,2.824990000000000146e+04,-6.433480000000000310e+00
1.134219999999999970e+02,2.824470000000000073e+04,-6.316410000000000302e+00
1.155180000000000007e+02,2.823459999999999854e+04,-6.198450000000000237e+00
1.176470000000000056e+02,2.822900000000000000e+04,-6.087810000000000166e+00
1.198559999999999945e+02,2.822600000000000000e+04,-5.981589999999999741e+00
1.220999999999999943e+02,2.822009999999999854e+04,-5.869710000000000427e+00
1.243780000000000001e+02,2.821309999999999854e+04,-5.762450000000000294e+00
1.266889999999999930e+02,2.820990000000000146e+04,-5.665790000000000326e+00
1.290320000000000107e+02,2.820640000000000146e+04,-5.556630000000000180e+00
1.314639999999999986e+02,2.820009999999999854e+04,-5.457379999999999676e+00
1.339290000000000020e+02,2.819550000000000000e+04,-5.357820000000000249e+00
1.363640000000000043e+02,2.819109999999999854e+04,-5.262559999999999683e+00
1.389530000000000030e+02,2.818650000000000000e+04,-5.161889999999999645e+00
1.415089999999999861e+02,2.818400000000000000e+04,-5.068459999999999965e+00
1.441610000000000014e+02,2.817850000000000000e+04,-4.977430000000000021e+00
1.468429999999999893e+02,2.817650000000000000e+04,-4.893659999999999677e+00
1.495509999999999877e+02,2.816970000000000073e+04,-4.799369999999999692e+00
1.523619999999999948e+02,2.816740000000000146e+04,-4.712340000000000195e+00
1.551990000000000123e+02,2.816759999999999854e+04,-4.627200000000000202e+00
1.580610000000000070e+02,2.815879999999999927e+04,-4.540869999999999962e+00
1.610310000000000059e+02,2.815979999999999927e+04,-4.461280000000000356e+00
1.640240000000000009e+02,2.815070000000000073e+04,-4.380659999999999776e+00
1.671310000000000002e+02,2.814840000000000146e+04,-4.300390000000000157e+00
1.702609999999999957e+02,2.814640000000000146e+04,-4.219979999999999620e+00
1.734099999999999966e+02,2.814259999999999854e+04,-4.145209999999999617e+00
1.765740000000000123e+02,2.814070000000000073e+04,-4.070280000000000342e+00
1.799639999999999986e+02,2.813890000000000146e+04,-3.995420000000000194e+00
1.832620000000000005e+02,2.813950000000000000e+04,-3.925229999999999997e+00
1.866829999999999927e+02,2.813409999999999854e+04,-3.850820000000000132e+00
1.901140000000000043e+02,2.813520000000000073e+04,-3.777210000000000178e+00
1.936730000000000018e+02,2.813229999999999927e+04,-3.712390000000000079e+00
1.973679999999999950e+02,2.812829999999999927e+04,-3.641129999999999978e+00
2.009379999999999882e+02,2.812529999999999927e+04,-3.580319999999999947e+00
2.047779999999999916e+02,2.812259999999999854e+04,-3.513560000000000016e+00
2.086229999999999905e+02,2.812279999999999927e+04,-3.448040000000000216e+00
2.124650000000000034e+02,2.812120000000000073e+04,-3.377720000000000056e+00
2.164499999999999886e+02,2.811890000000000146e+04,-3.325250000000000039e+00
2.204259999999999877e+02,2.811609999999999854e+04,-3.261080000000000201e+00
2.245509999999999877e+02,2.811409999999999854e+04,-3.200829999999999842e+00
2.286589999999999918e+02,2.811400000000000000e+04,-3.144649999999999945e+00
2.329190000000000111e+02,2.811300000000000000e+04,-3.087110000000000021e+00
2.373420000000000130e+02,2.811300000000000000e+04,-3.028090000000000170e+00
2.417410000000000139e+02,2.811040000000000146e+04,-2.979649999999999910e+00
2.463050000000000068e+02,2.810929999999999927e+04,-2.920459999999999834e+00
2.508360000000000127e+02,2.810490000000000146e+04,-2.869419999999999860e+00
2.555370000000000061e+02,2.810570000000000073e+04,-2.813790000000000013e+00
2.601909999999999741e+02,2.810270000000000073e+04,-2.767549999999999955e+00
2.650179999999999723e+02,2.810159999999999854e+04,-2.716089999999999893e+00
2.700269999999999868e+02,2.810259999999999854e+04,-2.671240000000000059e+00
2.752289999999999850e+02,2.810209999999999854e+04,-2.611489999999999867e+00
2.801120000000000232e+02,2.810020000000000073e+04,-2.566769999999999996e+00
2.854420000000000073e+02,2.809640000000000146e+04,-2.522909999999999986e+00
2.906979999999999791e+02,2.809650000000000000e+04,-2.477120000000000211e+00
2.961499999999999773e+02,2.809759999999999854e+04,-2.430550000000000210e+00
3.018109999999999786e+02,2.809420000000000073e+04,-2.383309999999999818e+00
3.073770000000000095e+02,2.809309999999999854e+04,-2.340539999999999843e+00
3.131519999999999868e+02,2.809050000000000000e+04,-2.296879999999999811e+00
3.188100000000000023e+02,2.809459999999999854e+04,-2.260060000000000180e+00
3.250269999999999868e+02,2.809079999999999927e+04,-2.215689999999999937e+00
3.307610000000000241e+02,2.809009999999999854e+04,-2.180540000000000145e+00
3.370790000000000077e+02,2.808950000000000000e+04,-2.135120000000000129e+00
3.432490000000000236e+02,2.808820000000000073e+04,-2.092940000000000023e+00
3.496499999999999773e+02,2.808909999999999854e+04,-2.065259999999999874e+00
3.562950000000000159e+02,2.808479999999999927e+04,-2.023550000000000182e+00
3.627570000000000050e+02,2.808600000000000000e+04,-1.985119999999999996e+00
3.694580000000000268e+02,2.808379999999999927e+04,-1.951440000000000063e+00
3.764119999999999777e+02,2.808540000000000146e+04,-1.915280000000000094e+00
3.836320000000000050e+02,2.808459999999999854e+04,-1.879580000000000028e+00
3.906250000000000000e+02,2.808390000000000146e+04,-1.843720000000000026e+00
3.978779999999999859e+02,2.808390000000000146e+04,-1.811790000000000012e+00
4.054049999999999727e+02,2.808290000000000146e+04,-1.777590000000000003e+00
4.132230000000000132e+02,2.808340000000000146e+04,-1.744010000000000060e+00
4.207570000000000050e+02,2.808209999999999854e+04,-1.712839999999999918e+00
4.285710000000000264e+02,2.808350000000000000e+04,-1.679629999999999956e+00
4.366809999999999832e+02,2.808079999999999927e+04,-1.652519999999999989e+00
4.444440000000000168e+02,2.807909999999999854e+04,-1.623660000000000103e+00
4.531720000000000255e+02,2.808170000000000073e+04,-1.597839999999999927e+00
4.615380000000000109e+02,2.808129999999999927e+04,-1.561120000000000063e+00
4.702189999999999941e+02,2.808250000000000000e+04,-1.536710000000000020e+00
4.784689999999999941e+02,2.808350000000000000e+04,-1.505030000000000090e+00
4.878050000000000068e+02,2.807820000000000073e+04,-1.478639999999999954e+00
4.966890000000000214e+02,2.808090000000000146e+04,-1.448280000000000012e+00
5.059019999999999868e+02,2.807670000000000073e+04,-1.427859999999999907e+00
5.154640000000000555e+02,2.807850000000000000e+04,-1.397119999999999918e+00
5.253940000000000055e+02,2.807850000000000000e+04,-1.373159999999999936e+00
5.347590000000000146e+02,2.807829999999999927e+04,-1.348330000000000028e+00
5.444650000000000318e+02,2.807429999999999927e+04,-1.326759999999999939e+00
5.545289999999999964e+02,2.807659999999999854e+04,-1.303290000000000060e+00
5.649719999999999800e+02,2.807740000000000146e+04,-1.279730000000000034e+00
5.758160000000000309e+02,2.807640000000000146e+04,-1.253020000000000023e+00
5.870839999999999463e+02,2.807629999999999927e+04,-1.230560000000000098e+00
5.976100000000000136e+02,2.807309999999999854e+04,-1.207589999999999941e+00
6.085190000000000055e+02,2.807609999999999854e+04,-1.184660000000000046e+00
6.198350000000000364e+02,2.807379999999999927e+04,-1.164639999999999898e+00
6.315789999999999509e+02,2.807650000000000000e+04,-1.145839999999999970e+00
6.437770000000000437e+02,2.807650000000000000e+04,-1.116689999999999960e+00
6.550220000000000482e+02,2.807340000000000146e+04,-1.102619999999999933e+00
6.681509999999999536e+02,2.807409999999999854e+04,-1.076719999999999899e+00
6.802720000000000482e+02,2.807370000000000073e+04,-1.063839999999999897e+00
6.928410000000000082e+02,2.807650000000000000e+04,-1.041900000000000048e+00
7.058819999999999482e+02,2.807479999999999927e+04,-1.026380000000000070e+00
7.194239999999999782e+02,2.807420000000000073e+04,-1.003139999999999921e+00
7.317069999999999936e+02,2.807350000000000000e+04,-9.857510000000000439e-01
7.462690000000000055e+02,2.807590000000000146e+04,-9.651910000000000212e-01
7.594940000000000282e+02,2.807309999999999854e+04,-9.523490000000000011e-01
7.731960000000000264e+02,2.807350000000000000e+04,-9.346539999999999848e-01
7.894740000000000464e+02,2.807409999999999854e+04,-9.154470000000000107e-01
8.021390000000000100e+02,2.807240000000000146e+04,-8.934189999999999632e-01
8.174389999999999645e+02,2.807559999999999854e+04,-8.805450000000000221e-01
8.333329999999999700e+02,2.807350000000000000e+04,-8.703359999999999985e-01
8.498579999999999472e+02,2.807140000000000146e+04,-8.515989999999999949e-01
8.645529999999999973e+02,2.807040000000000146e+04,-8.377350000000000074e-01
8.797649999999999864e+02,2.807350000000000000e+04,-8.195160000000000222e-01
8.982039999999999509e+02,2.807120000000000073e+04,-8.036180000000000545e-01
9.146340000000000146e+02,2.807159999999999854e+04,-7.910300000000000109e-01
9.316770000000000209e+02,2.807329999999999927e+04,-7.754830000000000334e-01
9.493669999999999618e+02,2.807059999999999854e+04,-7.629829999999999668e-01
9.677419999999999618e+02,2.807009999999999854e+04,-7.476819999999999578e-01
9.836069999999999709e+02,2.807250000000000000e+04,-7.360290000000000443e-01
1.003340000000000032e+03,2.807179999999999927e+04,-7.194819999999999549e-01
1.020409999999999968e+03,2.807059999999999854e+04,-7.075690000000000035e-01
1.041670000000000073e+03,2.807240000000000146e+04,-6.949159999999999782e-01
1.060069999999999936e+03,2.807100000000000000e+04,-6.814550000000000329e-01
1.079140000000000100e+03,2.807070000000000073e+04,-6.700530000000000097e-01
1.098900000000000091e+03,2.807070000000000073e+04,-6.595750000000000224e-01
1.119400000000000091e+03,2.807079999999999927e+04,-6.435760000000000369e-01
1.140680000000000064e+03,2.807129999999999927e+04,-6.328960000000000141e-01
1.162789999999999964e+03,2.807179999999999927e+04,-6.220909999999999496e-01
1.185769999999999982e+03,2.806929999999999927e+04,-6.103659999999999641e-01
1.204819999999999936e+03,2.807040000000000146e+04,-6.020889999999999853e-01
1.229509999999999991e+03,2.807040000000000146e+04,-5.879809999999999759e-01
1.250000000000000000e+03,2.807000000000000000e+04,-5.790450000000000319e-01
1.276599999999999909e+03,2.806940000000000146e+04,-5.672369999999999912e-01
1.298700000000000045e+03,2.807029999999999927e+04,-5.574120000000000186e-01
1.321589999999999918e+03,2.807000000000000000e+04,-5.485109999999999708e-01
1.345289999999999964e+03,2.807020000000000073e+04,-5.386090000000000044e-01
1.376150000000000091e+03,2.807070000000000073e+04,-5.264240000000000030e-01
1.401869999999999891e+03,2.807050000000000000e+04,-5.156009999999999760e-01
1.421799999999999955e+03,2.807000000000000000e+04,-5.116690000000000405e-01
1.449279999999999973e+03,2.807079999999999927e+04,-5.013269999999999671e-01
1.477829999999999927e+03,2.807150000000000000e+04,-4.903640000000000221e-01
1.507539999999999964e+03,2.807109999999999854e+04,-4.792989999999999751e-01
1.530609999999999900e+03,2.807170000000000073e+04,-4.752850000000000130e-01
1.562500000000000000e+03,2.807079999999999927e+04,-4.646020000000000150e-01
1.595740000000000009e+03,2.807070000000000073e+04,-4.537260000000000182e-01
1.621619999999999891e+03,2.807120000000000073e+04,-4.470470000000000277e-01
1.648349999999999909e+03,2.806950000000000000e+04,-4.413059999999999761e-01
1.685390000000000100e+03,2.806659999999999854e+04,-4.334990000000000232e-01
1.714289999999999964e+03,2.806940000000000146e+04,-4.236249999999999738e-01
1.744190000000000055e+03,2.806959999999999854e+04,-4.148399999999999865e-01
1.775150000000000091e+03,2.806979999999999927e+04,-4.100230000000000263e-01
1.807230000000000018e+03,2.806970000000000073e+04,-3.996270000000000100e-01
1.851849999999999909e+03,2.806950000000000000e+04,-3.917709999999999804e-01
1.875000000000000000e+03,2.807009999999999854e+04,-3.883150000000000213e-01
1.910829999999999927e+03,2.807020000000000073e+04,-3.791059999999999985e-01
1.948049999999999955e+03,2.807229999999999927e+04,-3.723969999999999780e-01
1.986759999999999991e+03,2.806929999999999927e+04,-3.658330000000000193e-01
2.027029999999999973e+03,2.806979999999999927e+04,-3.585289999999999866e-01
2.068969999999999800e+03,2.806990000000000146e+04,-3.530220000000000025e-01
2.097900000000000091e+03,2.807029999999999927e+04,-3.473519999999999941e-01
2.142860000000000127e+03,2.807029999999999927e+04,-3.398390000000000022e-01
2.173909999999999854e+03,2.807020000000000073e+04,-3.347339999999999760e-01
2.222219999999999800e+03,2.806950000000000000e+04,-3.283050000000000135e-01
2.255639999999999873e+03,2.807020000000000073e+04,-3.236089999999999800e-01
2.307690000000000055e+03,2.806940000000000146e+04,-3.157039999999999846e-01
2.343750000000000000e+03,2.806979999999999927e+04,-3.104109999999999925e-01
2.400000000000000000e+03,2.806979999999999927e+04,-3.027650000000000063e-01
2.439019999999999982e+03,2.806959999999999854e+04,-2.979049999999999754e-01
