# Tiempo [s], Voltage [V], Corriente [A]
#  Vpos=5, Vneg=5, stepPos=0.1, stepNeg=0.1, rev=0, hslV=0, hslF=0, cycles=1, T=0.5, pw=0.05, limitI=0.1, rangeI=0.02, limitV=0.5, rangeV=20, nlpc=0.001
0.000000000000000000e+00,1.004430000000000045e-01,-1.589539999999999963e-04
5.000010000000000288e-01,2.004660000000000053e-01,-1.373649999999999969e-04
1.000000000000000000e+00,3.027009999999999978e-01,-1.719120000000000034e-04
1.500000000000000000e+00,4.023260000000000169e-01,-1.157759999999999974e-04
2.000000000000000000e+00,5.021449999999999525e-01,-1.416800000000000123e-04
2.500000000000000000e+00,6.025490000000000013e-01,-1.589539999999999963e-04
3.000000000000000000e+00,6.999360000000000026e-01,-1.330489999999999928e-04
3.500000000000000000e+00,8.010209999999999830e-01,-1.503230000000000039e-04
4.000000000000000000e+00,9.011320000000000441e-01,-1.373649999999999969e-04
4.500000000000000000e+00,1.000950000000000006e+00,-1.416800000000000123e-04
5.000000000000000000e+00,1.102619999999999933e+00,-1.373649999999999969e-04
5.500000000000000000e+00,1.200299999999999923e+00,-1.330489999999999928e-04
6.000000000000000000e+00,1.302550000000000097e+00,-1.330489999999999928e-04
6.500000000000000000e+00,1.402760000000000007e+00,-1.546379999999999923e-04
7.000000000000000000e+00,1.502969999999999917e+00,-1.028180000000000039e-04
7.500000000000000000e+00,1.601329999999999920e+00,-1.416800000000000123e-04
8.000000000000000000e+00,1.702609999999999957e+00,-1.546379999999999923e-04
8.500000000000000000e+00,1.800769999999999982e+00,-1.373649999999999969e-04
9.000000000000000000e+00,1.900300000000000100e+00,-1.330489999999999928e-04
9.500000000000000000e+00,2.003919999999999924e+00,-1.848700000000000104e-04
1.000000000000000000e+01,2.098259999999999792e+00,9.335990000000000174e-04
1.050000000000000000e+01,2.235780000000000101e+00,9.681460000000000239e-04
1.100000000000000000e+01,2.315360000000000085e+00,9.508729999999999743e-04
1.150000000000000000e+01,2.414829999999999810e+00,1.007010000000000023e-03
1.200000000000000000e+01,2.509970000000000034e+00,1.127930000000000078e-03
1.250000000000000000e+01,2.617220000000000102e+00,1.184069999999999958e-03
1.300000000000000000e+01,2.714100000000000179e+00,1.248849999999999917e-03
1.350000000000000000e+01,2.809239999999999959e+00,1.507960000000000030e-03
1.400000000000000000e+01,2.921679999999999833e+00,1.551139999999999897e-03
1.450000000000000000e+01,3.019420000000000215e+00,1.559779999999999977e-03
1.500000000000000000e+01,3.107639999999999958e+00,1.641829999999999939e-03
1.550000000000000000e+01,3.170259999999999856e+00,2.167979999999999907e-03
1.600000000000000000e+01,3.275619999999999976e+00,2.176589999999999948e-03
1.650000000000000000e+01,3.374070000000000125e+00,2.215369999999999926e-03
1.700000000000000000e+01,3.485479999999999912e+00,2.323079999999999937e-03
1.750000000000000000e+01,3.584789999999999921e+00,2.318779999999999886e-03
1.800000000000000000e+01,3.679790000000000116e+00,2.409259999999999874e-03
1.850000000000000000e+01,3.771329999999999849e+00,2.460959999999999884e-03
1.900000000000000000e+01,3.858560000000000212e+00,2.521279999999999875e-03
1.950000000000000000e+01,3.973419999999999952e+00,2.603139999999999881e-03
2.000000000000000000e+01,4.075319999999999609e+00,2.745319999999999878e-03
2.050000000000000000e+01,4.175500000000000433e+00,2.758239999999999911e-03
2.100000000000000000e+01,4.271359999999999602e+00,3.236479999999999912e-03
2.150000000000000000e+01,4.376730000000000231e+00,3.447599999999999883e-03
2.200000000000000000e+01,4.479499999999999815e+00,3.529469999999999830e-03
2.250000000000000000e+01,4.580540000000000056e+00,3.632869999999999849e-03
2.300000000000000000e+01,4.678989999999999760e+00,3.766429999999999865e-03
2.350000000000000000e+01,4.769669999999999632e+00,3.856909999999999852e-03
2.400000000000000000e+01,4.869849999999999568e+00,3.943069999999999908e-03
2.450000000000000000e+01,4.970889999999999809e+00,3.990470000000000302e-03
2.500000000000000000e+01,4.864670000000000272e+00,3.912910000000000346e-03
2.550000000000000000e+01,4.771399999999999864e+00,3.831049999999999907e-03
2.600000000000000000e+01,4.680719999999999992e+00,3.701789999999999942e-03
2.650000000000000000e+01,4.571039999999999992e+00,3.637169999999999900e-03
2.700000000000000000e+01,4.488999999999999879e+00,3.477749999999999939e-03
2.750000000000000000e+01,4.386219999999999786e+00,3.477749999999999939e-03
2.800000000000000000e+01,4.281729999999999592e+00,3.344189999999999923e-03
2.850000000000000000e+01,4.178960000000000008e+00,3.266639999999999908e-03
2.900000000000000000e+01,4.065820000000000434e+00,3.171849999999999930e-03
2.950000000000000000e+01,3.978600000000000136e+00,3.081379999999999883e-03
3.000000000000000000e+01,3.882740000000000080e+00,2.973659999999999932e-03
3.050000000000000000e+01,3.779970000000000052e+00,2.891799999999999926e-03
3.100000000000000000e+01,3.680649999999999977e+00,2.779779999999999925e-03
3.150000000000000000e+01,3.617350000000000065e+00,2.689190000000000157e-03
3.200000000000000000e+01,3.510120000000000129e+00,2.615950000000000133e-03
3.250000000000000000e+01,3.411529999999999951e+00,2.512550000000000113e-03
3.300000000000000000e+01,3.319859999999999811e+00,2.404840000000000103e-03
3.350000000000000000e+01,3.223869999999999791e+00,2.279900000000000069e-03
3.400000000000000000e+01,3.119229999999999947e+00,2.180810000000000040e-03
3.450000000000000000e+01,3.002489999999999881e+00,2.094649999999999984e-03
3.500000000000000000e+01,2.920329999999999870e+00,2.034329999999999992e-03
3.550000000000000000e+01,2.800990000000000091e+00,1.965390000000000019e-03
3.600000000000000000e+01,2.724019999999999886e+00,1.905079999999999968e-03
3.650000000000000000e+01,2.609869999999999912e+00,1.784439999999999985e-03
3.700000000000000000e+01,2.508690000000000087e+00,1.693980000000000095e-03
3.750000000000000000e+01,2.421349999999999891e+00,1.655199999999999901e-03
3.800000000000000000e+01,2.306329999999999991e+00,1.581960000000000094e-03
3.850000000000000000e+01,2.225039999999999907e+00,1.495790000000000097e-03
3.900000000000000000e+01,2.113480000000000025e+00,1.375160000000000054e-03
3.950000000000000000e+01,2.002520000000000078e+00,1.345000000000000058e-03
4.000000000000000000e+01,1.902230000000000087e+00,1.207139999999999993e-03
4.050000000000000000e+01,1.800669999999999993e+00,1.198520000000000011e-03
4.100000000000000000e+01,1.701349999999999918e+00,1.099420000000000041e-03
4.150000000000000000e+01,1.603299999999999947e+00,1.021870000000000027e-03
4.200000000000000000e+01,1.501749999999999918e+00,9.615539999999999895e-04
4.250000000000000000e+01,1.401750000000000052e+00,8.667710000000000128e-04
4.300000000000000000e+01,1.303600000000000092e+00,7.806059999999999865e-04
4.350000000000000000e+01,1.203699999999999992e+00,7.202979999999999669e-04
4.400000000000000000e+01,1.102149999999999963e+00,6.427409999999999504e-04
4.450000000000000000e+01,1.002150000000000096e+00,5.608800000000000374e-04
4.500000000000000000e+01,9.028319999999999679e-01,5.091909999999999839e-04
4.550000000000000000e+01,8.009859999999999758e-01,4.445550000000000153e-04
4.600000000000000000e+01,7.016689999999999872e-01,4.273300000000000167e-04
4.650000000000000000e+01,6.011849999999999694e-01,3.497840000000000107e-04
4.700000000000000000e+01,5.019649999999999945e-01,2.851490000000000036e-04
4.750000000000000000e+01,3.997109999999999830e-01,2.420780000000000089e-04
4.800000000000000000e+01,3.009100000000000108e-01,1.774550000000000010e-04
4.850000000000000000e+01,2.000719999999999998e-01,1.171349999999999957e-04
4.900000000000000000e+01,9.992139999999999356e-02,5.681509999999999751e-05
4.950000000000000000e+01,-3.260609999999999941e-04,3.527400000000000143e-05
5.000000000000000000e+01,2.252579999999999904e-04,4.389290000000000119e-05
5.050000000000000000e+01,-1.000640000000000002e-01,-2.933740000000000138e-05
5.100000000000000000e+01,-2.004070000000000018e-01,-7.241960000000000031e-05
5.150000000000000000e+01,-3.002699999999999814e-01,-7.673500000000000308e-05
5.200000000000000000e+01,-4.003369999999999984e-01,-1.327400000000000064e-04
5.250000000000000000e+01,-5.006969999999999477e-01,-1.930479999999999989e-04
5.300000000000000000e+01,-5.994030000000000191e-01,-2.619860000000000222e-04
5.350000000000000000e+01,-6.999570000000000514e-01,-3.093719999999999782e-04
5.400000000000000000e+01,-7.995379999999999709e-01,-3.309130000000000079e-04
5.450000000000000000e+01,-8.984389999999999876e-01,-3.395319999999999740e-04
5.500000000000000000e+01,-1.001330000000000053e+00,-3.696920000000000241e-04
5.550000000000000000e+01,-1.097990000000000022e+00,-2.706049999999999883e-04
5.600000000000000000e+01,-1.200679999999999970e+00,-1.284240000000000023e-04
5.650000000000000000e+01,-1.300359999999999960e+00,-7.796289999999999517e-06
5.700000000000000000e+01,-1.401990000000000069e+00,-4.386190000000000097e-04
5.750000000000000000e+01,-1.500890000000000057e+00,-5.420209999999999525e-04
5.800000000000000000e+01,-1.599690000000000056e+00,-6.626489999999999637e-04
5.850000000000000000e+01,-1.699079999999999924e+00,-7.401940000000000082e-04
5.900000000000000000e+01,-1.801279999999999992e+00,-7.961990000000000386e-04
5.950000000000000000e+01,-1.899499999999999966e+00,-9.685279999999999671e-04
6.000000000000000000e+01,-1.998410000000000020e+00,-9.943840000000000665e-04
6.050000000000000000e+01,-2.092290000000000205e+00,-1.110709999999999996e-03
6.100000000000000000e+01,-2.199489999999999945e+00,-1.166710000000000056e-03
6.150000000000000000e+01,-2.292860000000000120e+00,-1.270099999999999918e-03
6.200000000000000000e+01,-2.394880000000000120e+00,-1.373510000000000095e-03
6.250000000000000000e+01,-2.502949999999999786e+00,-1.459669999999999935e-03
6.300000000000000000e+01,-2.601500000000000146e+00,-1.575989999999999986e-03
6.350000000000000000e+01,-2.694350000000000023e+00,-1.697399999999999951e-03
6.400000000000000000e+01,-2.810210000000000097e+00,-1.792219999999999968e-03
6.450000000000000000e+01,-2.903589999999999893e+00,-1.861180000000000039e-03
6.500000000000000000e+01,-3.008220000000000116e+00,-1.960309999999999830e-03
6.550000000000000000e+01,-3.099009999999999820e+00,-2.076689999999999960e-03
6.600000000000000000e+01,-3.196709999999999940e+00,-2.188750000000000157e-03
6.650000000000000000e+01,-3.300469999999999793e+00,-2.283569999999999958e-03
6.700000000000000000e+01,-3.409419999999999895e+00,-2.326679999999999807e-03
6.750000000000000000e+01,-3.492430000000000145e+00,-2.417190000000000050e-03
6.800000000000000000e+01,-3.616940000000000044e+00,-2.520629999999999832e-03
6.850000000000000000e+01,-3.699939999999999785e+00,-2.606840000000000025e-03
6.900000000000000000e+01,-3.809750000000000192e+00,-2.718899999999999789e-03
6.950000000000000000e+01,-3.913510000000000044e+00,-2.796480000000000059e-03
7.000000000000000000e+01,-3.989609999999999879e+00,-2.938720000000000134e-03
7.050000000000000000e+01,-4.108060000000000045e+00,-3.016299999999999971e-03
7.100000000000000000e+01,-4.185019999999999740e+00,-3.119750000000000127e-03
7.150000000000000000e+01,-4.307800000000000296e+00,-3.231809999999999891e-03
7.200000000000000000e+01,-4.389940000000000175e+00,-3.305090000000000111e-03
7.250000000000000000e+01,-4.494559999999999889e+00,-3.399909999999999911e-03
7.300000000000000000e+01,-4.610430000000000028e+00,-3.503360000000000068e-03
7.350000000000000000e+01,-4.706409999999999982e+00,-3.602489999999999859e-03
7.400000000000000000e+01,-4.801520000000000010e+00,-3.705930000000000075e-03
7.450000000000000000e+01,-4.900949999999999918e+00,-3.813679999999999848e-03
7.500000000000000000e+01,-5.009039999999999715e+00,-3.912820000000000013e-03
7.550000000000000000e+01,-4.885390000000000121e+00,-3.805069999999999807e-03
7.600000000000000000e+01,-4.792869999999999742e+00,-3.727480000000000029e-03
7.650000000000000000e+01,-4.699489999999999945e+00,-3.619729999999999823e-03
7.700000000000000000e+01,-4.603509999999999991e+00,-3.550769999999999968e-03
7.750000000000000000e+01,-4.499749999999999694e+00,-3.443009999999999821e-03
7.800000000000000000e+01,-4.408100000000000129e+00,-3.399909999999999911e-03
7.850000000000000000e+01,-4.303480000000000416e+00,-3.270599999999999809e-03
7.900000000000000000e+01,-4.209229999999999805e+00,-3.197339999999999904e-03
7.950000000000000000e+01,-4.108959999999999724e+00,-3.084760000000000193e-03
8.000000000000000000e+01,-4.011289999999999800e+00,-3.007189999999999863e-03
8.050000000000000000e+01,-3.906709999999999905e+00,-2.925309999999999976e-03
8.100000000000000000e+01,-3.802130000000000010e+00,-2.856360000000000062e-03
8.150000000000000000e+01,-3.708790000000000031e+00,-2.748619999999999796e-03
8.200000000000000000e+01,-3.583460000000000090e+00,-2.679669999999999882e-03
8.250000000000000000e+01,-3.521230000000000082e+00,-2.546070000000000104e-03
8.300000000000000000e+01,-3.401100000000000012e+00,-2.468500000000000208e-03
8.350000000000000000e+01,-3.324170000000000069e+00,-2.408169999999999842e-03
8.400000000000000000e+01,-3.223910000000000053e+00,-2.300439999999999950e-03
8.450000000000000000e+01,-3.094269999999999854e+00,-2.261650000000000032e-03
8.500000000000000000e+01,-3.006969999999999921e+00,-2.123750000000000204e-03
8.550000000000000000e+01,-2.904990000000000183e+00,-2.054799999999999856e-03
8.600000000000000000e+01,-2.802130000000000010e+00,-1.985849999999999942e-03
8.650000000000000000e+01,-2.701880000000000059e+00,-1.882420000000000100e-03
8.700000000000000000e+01,-2.596429999999999794e+00,-1.839329999999999915e-03
8.750000000000000000e+01,-2.509139999999999926e+00,-1.701430000000000086e-03
8.800000000000000000e+01,-2.391589999999999883e+00,-1.654019999999999969e-03
8.850000000000000000e+01,-2.312079999999999913e+00,-1.585070000000000055e-03
8.900000000000000000e+01,-2.208359999999999879e+00,-1.473020000000000015e-03
8.950000000000000000e+01,-2.104639999999999844e+00,-1.438550000000000028e-03
9.000000000000000000e+01,-2.001329999999999831e+00,-1.356659999999999984e-03
9.050000000000000000e+01,-1.899639999999999995e+00,-1.300640000000000043e-03
9.100000000000000000e+01,-1.798620000000000108e+00,-1.197219999999999925e-03
9.150000000000000000e+01,-1.699950000000000072e+00,-1.128270000000000011e-03
9.200000000000000000e+01,-1.600389999999999979e+00,-1.059309999999999939e-03
9.250000000000000000e+01,-1.500739999999999963e+00,-9.558799999999999892e-04
9.300000000000000000e+01,-1.400509999999999922e+00,-8.696910000000000187e-04
9.350000000000000000e+01,-1.302899999999999947e+00,-8.179780000000000210e-04
9.400000000000000000e+01,-1.200430000000000108e+00,-7.662650000000000234e-04
9.450000000000000000e+01,-1.101269999999999971e+00,-6.456020000000000031e-04
9.500000000000000000e+01,-1.001039999999999930e+00,-5.982039999999999667e-04
9.550000000000000000e+01,-8.993649999999999700e-01,-4.990220000000000072e-04
9.600000000000000000e+01,-8.010319999999999663e-01,-4.214530000000000186e-04
9.650000000000000000e+01,-7.008499999999999730e-01,-3.654479999999999881e-04
9.700000000000000000e+01,-5.991130000000000067e-01,-3.008129999999999810e-04
9.750000000000000000e+01,-5.000010000000000288e-01,-2.189399999999999875e-04
9.800000000000000000e+01,-4.010839999999999961e-01,-1.586079999999999966e-04
9.850000000000000000e+01,-2.999299999999999744e-01,-9.828809999999999836e-05
9.900000000000000000e+01,-1.999539999999999929e-01,-5.950930000000000298e-05
9.950000000000000000e+01,-1.002640000000000059e-01,8.106230000000000186e-07
