# Tiempo [s], Voltage [V], Corriente [A]
#  Vpos=0.3, Vneg=0.3, stepPos=0.006, stepNeg=0.006, rev=0, hslV=0, hslF=0, cycles=1, T=0.5, pw=0.05, limitI=0.0005, rangeI=0.0001, limitV=0.5, rangeV=20, nlpc=0.001
0.000000000000000000e+00,6.273840000000000146e-03,5.712629999999999717e-07
5.000010000000000288e-01,1.257089999999999944e-02,1.208520000000000078e-06
1.000000000000000000e+00,1.808890000000000151e-02,1.539900000000000071e-06
1.500000000000000000e+00,2.453740000000000088e-02,2.240879999999999880e-06
2.000000000000000000e+00,3.060720000000000107e-02,2.890880000000000009e-06
2.500000000000000000e+00,3.612520000000000314e-02,3.379449999999999890e-06
3.000000000000000000e+00,4.214090000000000197e-02,4.059209999999999884e-06
3.500000000000000000e+00,4.817830000000000029e-02,4.692220000000000283e-06
4.000000000000000000e+00,5.388020000000000309e-02,5.371960000000000148e-06
4.500000000000000000e+00,6.012309999999999877e-02,6.038959999999999860e-06
5.000000000000000000e+00,6.644179999999999531e-02,6.722949999999999727e-06
5.500000000000000000e+00,7.294440000000000646e-02,7.474919999999999915e-06
6.000000000000000000e+00,7.859230000000000382e-02,7.942250000000000064e-06
6.500000000000000000e+00,8.466210000000000402e-02,8.774940000000000726e-06
7.000000000000000000e+00,8.952010000000000522e-02,9.382459999999999273e-06
7.500000000000000000e+00,9.669350000000000167e-02,1.032559999999999987e-05
8.000000000000000000e+00,1.020279999999999937e-01,1.110729999999999952e-05
8.500000000000000000e+00,1.082599999999999951e-01,1.193999999999999918e-05
9.000000000000000000e+00,1.146110000000000045e-01,1.271320000000000052e-05
9.500000000000000000e+00,1.205829999999999957e-01,1.362659999999999927e-05
1.000000000000000000e+01,1.262739999999999974e-01,1.462070000000000047e-05
1.050000000000000000e+01,1.327450000000000019e-01,1.552140000000000017e-05
1.100000000000000000e+01,1.391610000000000069e-01,1.656650000000000139e-05
1.150000000000000000e+01,1.444189999999999918e-01,1.742469999999999937e-05
1.200000000000000000e+01,1.503160000000000052e-01,1.852929999999999893e-05
1.250000000000000000e+01,1.560719999999999885e-01,1.936620000000000103e-05
1.300000000000000000e+01,1.627260000000000095e-01,2.042829999999999887e-05
1.350000000000000000e+01,1.681030000000000024e-01,2.160940000000000015e-05
1.400000000000000000e+01,1.744219999999999937e-01,2.287119999999999881e-05
1.450000000000000000e+01,1.807729999999999893e-01,2.403949999999999913e-05
1.500000000000000000e+01,1.865179999999999894e-01,2.518230000000000113e-05
1.550000000000000000e+01,1.923700000000000132e-01,2.633210000000000154e-05
1.600000000000000000e+01,1.981779999999999931e-01,2.762670000000000097e-05
1.650000000000000000e+01,2.061080000000000134e-01,2.885769999999999986e-05
1.700000000000000000e+01,2.105839999999999934e-01,3.019900000000000004e-05
1.750000000000000000e+01,2.176869999999999916e-01,3.148089999999999873e-05
1.800000000000000000e+01,2.237190000000000012e-01,3.295380000000000287e-05
1.850000000000000000e+01,2.296549999999999980e-01,3.421450000000000251e-05
1.900000000000000000e+01,2.350059999999999927e-01,3.559399999999999836e-05
1.950000000000000000e+01,2.397739999999999871e-01,3.721550000000000308e-05
2.000000000000000000e+01,2.463899999999999979e-01,3.869689999999999876e-05
2.050000000000000000e+01,2.516439999999999788e-01,4.013590000000000311e-05
2.100000000000000000e+01,2.581629999999999758e-01,4.138380000000000178e-05
2.150000000000000000e+01,2.643900000000000139e-01,4.314959999999999765e-05
2.200000000000000000e+01,2.722709999999999853e-01,4.507680000000000183e-05
2.250000000000000000e+01,2.768439999999999790e-01,4.629500000000000314e-05
2.300000000000000000e+01,2.825849999999999751e-01,4.801830000000000069e-05
2.350000000000000000e+01,2.900769999999999738e-01,4.967800000000000107e-05
2.400000000000000000e+01,2.956230000000000246e-01,5.126980000000000166e-05
2.450000000000000000e+01,3.013629999999999920e-01,5.296769999999999772e-05
2.500000000000000000e+01,2.962060000000000248e-01,5.137170000000000148e-05
2.550000000000000000e+01,2.884229999999999849e-01,4.956340000000000051e-05
2.600000000000000000e+01,2.821960000000000024e-01,4.783159999999999788e-05
2.650000000000000000e+01,2.763579999999999925e-01,4.643930000000000106e-05
2.700000000000000000e+01,2.693519999999999803e-01,4.479240000000000164e-05
2.750000000000000000e+01,2.672120000000000051e-01,4.328969999999999991e-05
2.800000000000000000e+01,2.605950000000000211e-01,4.163430000000000218e-05
2.850000000000000000e+01,2.534930000000000239e-01,4.028869999999999934e-05
2.900000000000000000e+01,2.476549999999999863e-01,3.876910000000000122e-05
2.950000000000000000e+01,2.399679999999999869e-01,3.705849999999999764e-05
3.000000000000000000e+01,2.344219999999999915e-01,3.549640000000000119e-05
3.050000000000000000e+01,2.283900000000000097e-01,3.422300000000000082e-05
3.100000000000000000e+01,2.219679999999999986e-01,3.303020000000000099e-05
3.150000000000000000e+01,2.162260000000000015e-01,3.181290000000000165e-05
3.200000000000000000e+01,2.091270000000000073e-01,3.021749999999999995e-05
3.250000000000000000e+01,2.028050000000000130e-01,2.891060000000000065e-05
3.300000000000000000e+01,1.978179999999999938e-01,2.769709999999999948e-05
3.350000000000000000e+01,1.914820000000000133e-01,2.614829999999999832e-05
3.400000000000000000e+01,1.856869999999999910e-01,2.519359999999999880e-05
3.450000000000000000e+01,1.800440000000000096e-01,2.395889999999999858e-05
3.500000000000000000e+01,1.741939999999999877e-01,2.289810000000000020e-05
3.550000000000000000e+01,1.683779999999999999e-01,2.189250000000000088e-05
3.600000000000000000e+01,1.616529999999999911e-01,2.048800000000000103e-05
3.650000000000000000e+01,1.555439999999999878e-01,1.954599999999999887e-05
3.700000000000000000e+01,1.502469999999999917e-01,1.851069999999999880e-05
3.750000000000000000e+01,1.432630000000000015e-01,1.742439999999999872e-05
3.800000000000000000e+01,1.386890000000000067e-01,1.647820000000000090e-05
3.850000000000000000e+01,1.316940000000000055e-01,1.547680000000000063e-05
3.900000000000000000e+01,1.256400000000000017e-01,1.446700000000000057e-05
3.950000000000000000e+01,1.197369999999999962e-01,1.373719999999999953e-05
4.000000000000000000e+01,1.145690000000000042e-01,1.299879999999999996e-05
4.050000000000000000e+01,1.082650000000000001e-01,1.201020000000000065e-05
4.100000000000000000e+01,1.020159999999999956e-01,1.131429999999999940e-05
4.150000000000000000e+01,9.591860000000000663e-02,1.039780000000000063e-05
4.200000000000000000e+01,8.978840000000000432e-02,9.587359999999999632e-06
4.250000000000000000e+01,8.330150000000000055e-02,8.823590000000000675e-06
4.300000000000000000e+01,7.786329999999999640e-02,8.106490000000000375e-06
4.350000000000000000e+01,7.216559999999999642e-02,7.537910000000000137e-06
4.400000000000000000e+01,6.610030000000000072e-02,6.727479999999999834e-06
4.450000000000000000e+01,6.016470000000000151e-02,6.171629999999999896e-06
4.500000000000000000e+01,5.426160000000000011e-02,5.446050000000000145e-06
4.550000000000000000e+01,4.767729999999999885e-02,4.919900000000000109e-06
4.600000000000000000e+01,4.181750000000000050e-02,4.122190000000000253e-06
4.650000000000000000e+01,3.629269999999999718e-02,3.668180000000000174e-06
4.700000000000000000e+01,2.958960000000000062e-02,2.878950000000000193e-06
4.750000000000000000e+01,2.357139999999999930e-02,2.294749999999999925e-06
4.800000000000000000e+01,1.788359999999999950e-02,1.831959999999999948e-06
4.850000000000000000e+01,1.250940000000000038e-02,1.122919999999999999e-06
4.900000000000000000e+01,6.313299999999999988e-03,6.176709999999999727e-07
4.950000000000000000e+01,1.496790000000000013e-04,-6.588699999999999964e-08
5.000000000000000000e+01,-2.179620000000000114e-04,1.166699999999999985e-07
5.050000000000000000e+01,-5.733280000000000320e-03,-5.244259999999999871e-07
5.100000000000000000e+01,-1.215699999999999940e-02,-1.199509999999999972e-06
5.150000000000000000e+01,-1.834289999999999879e-02,-1.798159999999999950e-06
5.200000000000000000e+01,-2.364190000000000041e-02,-2.345869999999999869e-06
5.250000000000000000e+01,-3.011969999999999925e-02,-3.003969999999999972e-06
5.300000000000000000e+01,-3.654339999999999672e-02,-3.577150000000000132e-06
5.350000000000000000e+01,-4.180999999999999994e-02,-4.124840000000000135e-06
5.400000000000000000e+01,-4.780120000000000202e-02,-4.863610000000000178e-06
5.450000000000000000e+01,-5.379239999999999716e-02,-5.568409999999999766e-06
5.500000000000000000e+01,-6.023769999999999819e-02,-6.201029999999999987e-06
5.550000000000000000e+01,-6.588289999999999424e-02,-6.901590000000000273e-06
5.600000000000000000e+01,-7.177669999999999884e-02,-7.474769999999999586e-06
5.650000000000000000e+01,-7.784349999999999603e-02,-8.311190000000000296e-06
5.700000000000000000e+01,-8.416999999999999482e-02,-9.113630000000000697e-06
5.750000000000000000e+01,-8.969610000000000083e-02,-9.911839999999999954e-06
5.800000000000000000e+01,-9.675789999999999391e-02,-1.071000000000000080e-05
5.850000000000000000e+01,-1.019160000000000066e-01,-1.158890000000000012e-05
5.900000000000000000e+01,-1.082209999999999978e-01,-1.245079999999999944e-05
5.950000000000000000e+01,-1.141579999999999956e-01,-1.333389999999999951e-05
6.000000000000000000e+01,-1.198570000000000052e-01,-1.419159999999999979e-05
6.050000000000000000e+01,-1.257949999999999902e-01,-1.504069999999999984e-05
6.100000000000000000e+01,-1.315689999999999915e-01,-1.610219999999999975e-05
6.150000000000000000e+01,-1.385230000000000072e-01,-1.726130000000000023e-05
6.200000000000000000e+01,-1.445680000000000021e-01,-1.840340000000000069e-05
6.250000000000000000e+01,-1.503539999999999877e-01,-1.936290000000000057e-05
6.300000000000000000e+01,-1.555989999999999873e-01,-2.042440000000000049e-05
6.350000000000000000e+01,-1.614929999999999977e-01,-2.159959999999999899e-05
6.400000000000000000e+01,-1.679350000000000009e-01,-2.272469999999999945e-05
6.450000000000000000e+01,-1.745279999999999887e-01,-2.432099999999999974e-05
6.500000000000000000e+01,-1.799320000000000086e-01,-2.503850000000000091e-05
6.550000000000000000e+01,-1.864169999999999994e-01,-2.645649999999999987e-05
6.600000000000000000e+01,-1.920159999999999922e-01,-2.779390000000000167e-05
6.650000000000000000e+01,-1.988149999999999917e-01,-2.936899999999999952e-05
6.700000000000000000e+01,-2.043240000000000056e-01,-3.052380000000000073e-05
6.750000000000000000e+01,-2.113240000000000118e-01,-3.179750000000000176e-05
6.800000000000000000e+01,-2.171569999999999889e-01,-3.318160000000000093e-05
6.850000000000000000e+01,-2.229909999999999948e-01,-3.483309999999999689e-05
6.900000000000000000e+01,-2.296009999999999995e-01,-3.650160000000000302e-05
6.950000000000000000e+01,-2.352400000000000047e-01,-3.777949999999999971e-05
7.000000000000000000e+01,-2.411709999999999965e-01,-3.948630000000000174e-05
7.050000000000000000e+01,-2.440869999999999984e-01,-4.095100000000000145e-05
7.100000000000000000e+01,-2.524480000000000057e-01,-4.258560000000000101e-05
7.150000000000000000e+01,-2.587670000000000248e-01,-4.420739999999999961e-05
7.200000000000000000e+01,-2.646009999999999751e-01,-4.598210000000000144e-05
7.250000000000000000e+01,-2.700449999999999795e-01,-4.782040000000000043e-05
7.300000000000000000e+01,-2.759750000000000258e-01,-4.936580000000000091e-05
7.350000000000000000e+01,-2.828780000000000183e-01,-5.087299999999999895e-05
7.400000000000000000e+01,-2.868640000000000079e-01,-5.252450000000000169e-05
7.450000000000000000e+01,-2.952239999999999864e-01,-5.449449999999999807e-05
7.500000000000000000e+01,-3.005720000000000058e-01,-5.618000000000000082e-05
7.550000000000000000e+01,-2.951269999999999727e-01,-5.453270000000000052e-05
7.600000000000000000e+01,-2.883220000000000227e-01,-5.274950000000000038e-05
7.650000000000000000e+01,-2.806420000000000026e-01,-5.069039999999999836e-05
7.700000000000000000e+01,-2.754889999999999839e-01,-4.904309999999999806e-05
7.750000000000000000e+01,-2.724750000000000227e-01,-4.771850000000000061e-05
7.800000000000000000e+01,-2.633369999999999878e-01,-4.561269999999999783e-05
7.850000000000000000e+01,-2.599339999999999984e-01,-4.410119999999999714e-05
7.900000000000000000e+01,-2.524480000000000057e-01,-4.244549999999999875e-05
7.950000000000000000e+01,-2.451579999999999870e-01,-4.069379999999999992e-05
8.000000000000000000e+01,-2.409729999999999928e-01,-3.920379999999999894e-05
8.050000000000000000e+01,-2.329910000000000037e-01,-3.771810000000000061e-05
8.100000000000000000e+01,-2.275399999999999923e-01,-3.587159999999999719e-05
8.150000000000000000e+01,-2.207270000000000065e-01,-3.478910000000000205e-05
8.200000000000000000e+01,-2.156659999999999966e-01,-3.343500000000000091e-05
8.250000000000000000e+01,-2.086570000000000091e-01,-3.176249999999999956e-05
8.300000000000000000e+01,-2.029140000000000110e-01,-3.039139999999999840e-05
8.350000000000000000e+01,-1.984680000000000055e-01,-2.903300000000000138e-05
8.400000000000000000e+01,-1.922349999999999892e-01,-2.757700000000000041e-05
8.450000000000000000e+01,-1.866510000000000113e-01,-2.625260000000000001e-05
8.500000000000000000e+01,-1.799199999999999966e-01,-2.514899999999999926e-05
8.550000000000000000e+01,-1.748450000000000004e-01,-2.404950000000000073e-05
8.600000000000000000e+01,-1.685250000000000081e-01,-2.278029999999999939e-05
8.650000000000000000e+01,-1.615350000000000119e-01,-2.143469999999999994e-05
8.700000000000000000e+01,-1.557129999999999903e-01,-2.050079999999999860e-05
8.750000000000000000e+01,-1.502910000000000079e-01,-1.937589999999999858e-05
8.800000000000000000e+01,-1.439930000000000099e-01,-1.815760000000000044e-05
8.850000000000000000e+01,-1.383119999999999905e-01,-1.726190000000000154e-05
8.900000000000000000e+01,-1.313860000000000028e-01,-1.617520000000000058e-05
8.950000000000000000e+01,-1.255529999999999979e-01,-1.527110000000000021e-05
9.000000000000000000e+01,-1.195149999999999962e-01,-1.421409999999999999e-05
9.050000000000000000e+01,-1.142009999999999970e-01,-1.332270000000000036e-05
9.100000000000000000e+01,-1.082930000000000004e-01,-1.243120000000000051e-05
9.150000000000000000e+01,-1.028929999999999984e-01,-1.161199999999999995e-05
9.200000000000000000e+01,-9.668110000000000592e-02,-1.066960000000000030e-05
9.250000000000000000e+01,-8.973369999999999957e-02,-9.926749999999999444e-06
9.300000000000000000e+01,-8.403069999999999984e-02,-9.124470000000000071e-06
9.350000000000000000e+01,-7.771089999999999942e-02,-8.288219999999999396e-06
9.400000000000000000e+01,-7.231100000000000028e-02,-7.549610000000000381e-06
9.450000000000000000e+01,-6.621849999999999958e-02,-7.069930000000000257e-06
9.500000000000000000e+01,-5.997450000000000003e-02,-6.390749999999999757e-06
9.550000000000000000e+01,-5.444340000000000290e-02,-5.557110000000000399e-06
9.600000000000000000e+01,-4.818909999999999860e-02,-4.797490000000000378e-06
9.650000000000000000e+01,-4.164319999999999827e-02,-4.029390000000000058e-06
9.700000000000000000e+01,-3.619900000000000201e-02,-3.401329999999999925e-06
9.750000000000000000e+01,-3.048479999999999940e-02,-2.913309999999999979e-06
9.800000000000000000e+01,-2.418740000000000126e-02,-2.259779999999999818e-06
9.850000000000000000e+01,-1.767379999999999993e-02,-1.661420000000000010e-06
9.900000000000000000e+01,-1.258609999999999937e-02,-1.088519999999999956e-06
9.950000000000000000e+01,-6.396680000000000074e-03,-6.047489999999999845e-07
